0,1,2,3,4,5,6,7,8,9,10,11,12,13,14,15,16,17,18,19,20,21,22,23,24,25,26,27,28,29,30,31,32,33,34,35,36,37,38,39,40,41,42,43,44,45,46,47,48,49,50,51,52,53,54,55,56,57,58,59,60,61,62,63,64,65,66,67,68,69,70,71,72,73,74,75,76,77,78,79,80,81,82,83,84,85,86,87,88,89,90,91,92,93,94,95,96,97,98,99,100,101,102,103,104,105,106,107,108,109,110,111,112,113,114,115,116,117,118,119,120,121,122,123,124,125,126,127,128,129,130,131,132,133,134,135,136,137,138,139,140,141,142,143,144,145,146,147,148,149,150,151,152,153,154,155,156,157,158,159,160,161,162,163,164,165,166,167,168,169,170,171,172,173,174,175,176,177,178,179,180,181,182,183,184,185,186,187
0.9528985619544984,0.9528985619544984,0.6539855003356932,0.4384058117866516,0.4094202816486359,0.4039855003356934,0.3641304373741149,0.30978259444236755,0.2681159377098083,0.2228260934352875,0.1829710155725479,0.14673912525176994,0.12137681245803833,0.12318840622901918,0.1105072498321533,0.10688405483961104,0.10688405483961104,0.09420289844274522,0.09601449221372604,0.08514492958784102,0.08152174204587936,0.07608695328235625,0.06521739065647125,0.05797101557254791,0.041666667908430086,0.038043476641178124,0.01992753706872464,0.014492753893136978,0.010869565419852734,0.0,0.005434782709926367,0.007246376946568489,0.01992753706872464,0.041666667908430086,0.056159421801567085,0.07971014827489856,0.114130437374115,0.14130434393882751,0.1721014529466629,0.18115942180156708,0.1902173906564712,0.19927535951137546,0.19746376574039454,0.20108695328235626,0.1938405781984329,0.204710140824318,0.20108695328235626,0.1938405781984329,0.19746376574039454,0.1920289844274521,0.19746376574039454,0.1938405781984329,0.1902173906564712,0.19565217196941373,0.1865942031145096,0.1902173906564712,0.1884057968854904,0.1865942031145096,0.19927535951137546,0.1920289844274521,0.1902173906564712,0.1938405781984329,0.1902173906564712,0.1938405781984329,0.1920289844274521,0.19746376574039454,0.19927535951137546,0.1938405781984329,0.19746376574039454,0.19746376574039454,0.19746376574039454,0.20108695328235626,0.19565217196941373,0.21195651590824127,0.2065217345952988,0.21195651590824127,0.2192029058933258,0.21014492213726044,0.22463768720626834,0.22463768720626834,0.22826087474823,0.2336956560611725,0.21739129722118372,0.21195651590824127,0.19746376574039454,0.19927535951137546,0.19746376574039454,0.19746376574039454,0.19927535951137546,0.20108695328235626,0.19565217196941373,0.204710140824318,0.2028985470533371,0.2065217345952988,0.21376810967922208,0.21014492213726044,0.3079710006713868,0.42753621935844416,0.5561594367027283,0.7409420013427735,0.903985500335693,1.0,0.9456521868705748,0.6521739363670349,0.4311594069004058,0.4384058117866516,0.4021739065647125,0.36231884360313416,0.31521740555763245,0.2771739065647125,0.2318840622901917,0.1920289844274521,0.1612318903207779,0.14130434393882751,0.13405796885490415,0.125,0.11956521868705745,0.114130437374115,0.11231884360313417,0.114130437374115,0.09782608598470688,0.09963767975568773,0.09057971090078352,0.0,0.0,0.0,0.0,0.0,0.0,0.0,0.0,0.0,0.0,0.0,0.0,0.0,0.0,0.0,0.0,0.0,0.0,0.0,0.0,0.0,0.0,0.0,0.0,0.0,0.0,0.0,0.0,0.0,0.0,0.0,0.0,0.0,0.0,0.0,0.0,0.0,0.0,0.0,0.0,0.0,0.0,0.0,0.0,0.0,0.0,0.0,0.0,0.0,0.0,0.0,0.0,0.0,0.0,0.0,0.0,0.0,0.0,0.0,0.0,0.0,0.0,0.0,0.0,0.0
0.9649681448936462,0.6464968323707581,0.7738853693008422,0.3662420511245728,0.18152865767478946,0.1624203771352768,0.14968152344226834,0.14649681746959686,0.14649681746959686,0.13694266974925992,0.12738853693008426,0.1178343966603279,0.1114649698138237,0.10509554296731947,0.09235668927431104,0.09235668927431104,0.08280254900455475,0.08280254900455475,0.06369426846504211,0.06050955504179,0.044585987925529466,0.041401274502277374,0.03503184765577316,0.031847134232521064,0.01910828053951264,0.009554140269756315,0.0063694268465042106,0.0063694268465042106,0.0,0.0031847134232521053,0.0031847134232521053,0.009554140269756315,0.009554140269756315,0.025477707386016842,0.03503184765577316,0.044585987925529466,0.06369426846504211,0.08280254900455475,0.09872611612081528,0.1146496832370758,0.13375796377658847,0.14649681746959686,0.1528662443161011,0.16560509800910947,0.15923567116260529,0.17515923082828516,0.1719745248556137,0.168789803981781,0.16560509800910947,0.17515923082828516,0.1719745248556137,0.15923567116260529,0.1624203771352768,0.1624203771352768,0.16560509800910947,0.15605095028877258,0.15923567116260529,0.15923567116260529,0.1528662443161011,0.1528662443161011,0.15605095028877258,0.168789803981781,0.15605095028877258,0.1624203771352768,0.15923567116260529,0.15605095028877258,0.1528662443161011,0.1433120965957642,0.15605095028877258,0.15923567116260529,0.14968152344226834,0.1719745248556137,0.1847133785486221,0.19745223224163053,0.20063693821430206,0.2197452187538147,0.22292993962764732,0.22292993962764732,0.19745223224163053,0.1878980845212936,0.1878980845212936,0.1910828053951264,0.17834395170211792,0.17834395170211792,0.17834395170211792,0.1878980845212936,0.1910828053951264,0.17834395170211792,0.17834395170211792,0.19745223224163053,0.19426751136779785,0.19745223224163053,0.19426751136779785,0.1878980845212936,0.20700636506080627,0.20700636506080627,0.21019108593463895,0.2929936349391937,0.3980891704559327,0.51592355966568,0.7197452187538147,0.9745222926139832,1.0,0.7579618096351622,0.9554139971733092,0.4426751732826233,0.24522292613983154,0.20063693821430206,0.21019108593463895,0.2038216590881348,0.1878980845212936,0.1910828053951264,0.1878980845212936,0.1878980845212936,0.168789803981781,0.168789803981781,0.1624203771352768,0.1624203771352768,0.1433120965957642,0.1528662443161011,0.13694266974925992,0.12738853693008426,0.12738853693008426,0.0,0.0,0.0,0.0,0.0,0.0,0.0,0.0,0.0,0.0,0.0,0.0,0.0,0.0,0.0,0.0,0.0,0.0,0.0,0.0,0.0,0.0,0.0,0.0,0.0,0.0,0.0,0.0,0.0,0.0,0.0,0.0,0.0,0.0,0.0,0.0,0.0,0.0,0.0,0.0,0.0,0.0,0.0,0.0,0.0,0.0,0.0,0.0,0.0,0.0,0.0,0.0,0.0,0.0,0.0,0.0,0.0,0.0,0.0,0.0,0.0,0.0,0.0,0.0,4.0
0.9775510430336,1.0,0.6081632375717164,0.3938775658607482,0.3693877458572388,0.3244898021221161,0.27551019191741943,0.2265306115150452,0.18571428954601288,0.1448979526758194,0.1142857149243355,0.08979591727256776,0.09387755393981934,0.07755102217197417,0.08163265138864517,0.055102039128541946,0.07551020383834839,0.06530611962080002,0.061224490404129035,0.05102040991187097,0.05306122452020645,0.04489795863628388,0.03265305981040001,0.03265305981040001,0.030612245202064518,0.014285714365541937,0.022448979318141937,0.008163264952600002,0.022448979318141937,0.018367346376180645,0.0346938781440258,0.055102039128541946,0.09183673560619354,0.12040816247463225,0.14897958934307098,0.16530612111091614,0.1795918345451355,0.16530612111091614,0.18367347121238708,0.1693877577781677,0.18163265287876126,0.1693877577781677,0.1795918345451355,0.1734693944454193,0.1755101978778839,0.1734693944454193,0.1734693944454193,0.15306122601032254,0.14897958934307098,0.12857143580913544,0.1367346942424774,0.22040815651416776,0.4040816426277161,0.5877550840377807,0.7979592084884644,0.7938775420188902,0.7020407915115356,0.4979591965675354,0.2775510251522064,0.0795918330550194,0.018367346376180645,0.0,0.06326530873775481,0.0714285746216774,0.08775509893894196,0.09183673560619354,0.08979591727256776,0.09795918315649033,0.10204081982374193,0.08367346972227098,0.10204081982374193,0.11020407825708388,0.13469387590885162,0.13061223924160004,0.1387755125761032,0.1367346942424774,0.140816330909729,0.1448979526758194,0.16530612111091614,0.1755101978778839,0.0,0.0,0.0,0.0,0.0,0.0,0.0,0.0,0.0,0.0,0.0,0.0,0.0,0.0,0.0,0.0,0.0,0.0,0.0,0.0,0.0,0.0,0.0,0.0,0.0,0.0,0.0,0.0,0.0,0.0,0.0,0.0,0.0,0.0,0.0,0.0,0.0,0.0,0.0,0.0,0.0,0.0,0.0,0.0,0.0,0.0,0.0,0.0,0.0,0.0,0.0,0.0,0.0,0.0,0.0,0.0,0.0,0.0,0.0,0.0,0.0,0.0,0.0,0.0,0.0,0.0,0.0,0.0,0.0,0.0,0.0,0.0,0.0,0.0,0.0,0.0,0.0,0.0,0.0,0.0,0.0,0.0,0.0,0.0,0.0,0.0,0.0,0.0,0.0,0.0,0.0,0.0,0.0,0.0,0.0,0.0,0.0,0.0,0.0,0.0,0.0,0.0,0.0,0.0,0.0,0.0,0.0,0.0
0.9438775777816769,0.9056122303009032,0.7066326737403869,0.23979592323303225,0.06377550959587096,0.1505102068185806,0.11479591578245164,0.04336734861135483,0.015306122601032257,0.04336734861135483,0.038265306502580636,0.04846938699483872,0.05102040991187097,0.056122448295354836,0.06632652878761293,0.061224490404129035,0.04336734861135483,0.0535714291036129,0.061224490404129035,0.056122448295354836,0.058673471212387085,0.07908163219690323,0.08673469722270966,0.0892857164144516,0.0841836705803871,0.10969387739896776,0.09438775479793547,0.09438775479793547,0.09693877398967744,0.11989796161651613,0.125,0.12755101919174192,0.11224489659070967,0.13265305757522586,0.12755101919174192,0.11479591578245164,0.11734694242477416,0.125,0.12244898080825806,0.10459183901548384,0.09183673560619354,0.10204081982374193,0.10204081982374193,0.09948979318141933,0.08673469722270966,0.10204081982374193,0.0714285746216774,0.06632652878761293,0.058673471212387085,0.07397959381341934,0.061224490404129035,0.06377550959587096,0.06632652878761293,0.08163265138864517,0.08163265138864517,0.0841836705803871,0.07397959381341934,0.10204081982374193,0.11734694242477416,0.125,0.1428571492433548,0.18877550959587094,0.21173469722270966,0.20918367803096768,0.2015306055545807,0.19897958636283875,0.18877550959587094,0.16326530277729032,0.12244898080825806,0.1071428582072258,0.09948979318141933,0.08673469722270966,0.06887754797935483,0.0841836705803871,0.10204081982374193,0.05102040991187097,0.0,0.02040816284716129,0.2933673560619354,0.6096938848495483,0.8852040767669677,1.0,0.9846938848495486,0.7193877696990967,0.25255101919174194,0.10969387739896776,0.1938775479793549,0.12244898080825806,0.058673471212387085,0.038265306502580636,0.06632652878761293,0.061224490404129035,0.07397959381341934,0.056122448295354836,0.0841836705803871,0.05102040991187097,0.058673471212387085,0.0,0.0,0.0,0.0,0.0,0.0,0.0,0.0,0.0,0.0,0.0,0.0,0.0,0.0,0.0,0.0,0.0,0.0,0.0,0.0,0.0,0.0,0.0,0.0,0.0,0.0,0.0,0.0,0.0,0.0,0.0,0.0,0.0,0.0,0.0,0.0,0.0,0.0,0.0,0.0,0.0,0.0,0.0,0.0,0.0,0.0,0.0,0.0,0.0,0.0,0.0,0.0,0.0,0.0,0.0,0.0,0.0,0.0,0.0,0.0,0.0,0.0,0.0,0.0,0.0,0.0,0.0,0.0,0.0,0.0,0.0,0.0,0.0,0.0,0.0,0.0,0.0,0.0,0.0,0.0,0.0,0.0,0.0,0.0,0.0,0.0,0.0,0.0,0.0,0.0,0.0
0.9453375935554502,0.8488745689392091,0.5080385804176331,0.23472668230533603,0.13183279335498807,0.12540192902088165,0.08038584887981415,0.08681672066450119,0.07073955237865448,0.0739549845457077,0.05466238036751747,0.06752411276102066,0.048231512308120734,0.028938906267285344,0.0,0.01607717014849186,0.01607717014849186,0.03536977618932724,0.02572347223758697,0.03536977618932724,0.041800644248723984,0.05466238036751747,0.048231512308120734,0.06430868059396744,0.06430868059396744,0.0739549845457077,0.08360128849744798,0.10932476073503496,0.09967845678329468,0.1350482255220413,0.12540192902088165,0.1511254012584686,0.1350482255220413,0.14147910475730896,0.14469453692436218,0.15434083342552185,0.1479099690914154,0.17041800916194916,0.14147910475730896,0.15755626559257507,0.1479099690914154,0.1607716977596283,0.1607716977596283,0.1639871448278427,0.1511254012584686,0.17363344132900238,0.1607716977596283,0.16720257699489596,0.17041800916194916,0.17363344132900238,0.17363344132900238,0.17684887349605566,0.15434083342552185,0.17363344132900238,0.15755626559257507,0.17041800916194916,0.15755626559257507,0.1639871448278427,0.1511254012584686,0.1607716977596283,0.1479099690914154,0.17363344132900238,0.1607716977596283,0.17363344132900238,0.1607716977596283,0.17363344132900238,0.17684887349605566,0.18327973783016205,0.1864951699972153,0.19292604923248288,0.17363344132900238,0.18006430566310885,0.17041800916194916,0.17684887349605566,0.1639871448278427,0.18006430566310885,0.16720257699489596,0.17041800916194916,0.2926045060157776,0.5659164190292358,0.8167202472686766,1.0,0.8810289502143859,0.5434083342552185,0.21221864223480225,0.1382636725902557,0.09324758499860764,0.09646302461624144,0.07073955237865448,0.06430868059396744,0.045016076415777206,0.05466238036751747,0.03858520835638047,0.041800644248723984,0.019292604178190238,0.0,0.0,0.0,0.0,0.0,0.0,0.0,0.0,0.0,0.0,0.0,0.0,0.0,0.0,0.0,0.0,0.0,0.0,0.0,0.0,0.0,0.0,0.0,0.0,0.0,0.0,0.0,0.0,0.0,0.0,0.0,0.0,0.0,0.0,0.0,0.0,0.0,0.0,0.0,0.0,0.0,0.0,0.0,0.0,0.0,0.0,0.0,0.0,0.0,0.0,0.0,0.0,0.0,0.0,0.0,0.0,0.0,0.0,0.0,0.0,0.0,0.0,0.0,0.0,0.0,0.0,0.0,0.0,0.0,0.0,0.0,0.0,0.0,0.0,0.0,0.0,0.0,0.0,0.0,0.0,0.0,0.0,0.0,0.0,0.0,0.0,0.0,0.0,0.0,0.0,0.0,0.0,0.0
0.9567567706108092,0.7459459304809569,0.4054054021835328,0.2918919026851654,0.3027026951313019,0.3081081211566925,0.2864864766597748,0.3189189136028289,0.29729729890823364,0.3243243098258972,0.3189189136028289,0.3405405282974243,0.3297297358512878,0.3837837874889373,0.3783783912658691,0.4216216206550599,0.4162162244319916,0.4324324429035187,0.4378378391265869,0.4918918907642365,0.4864864945411681,0.5405405163764953,0.5189189314842223,0.5567567348480223,0.5567567348480223,0.5729729533195496,0.562162160873413,0.5783783793449402,0.5243242979049683,0.5135135054588317,0.4702702760696411,0.4378378391265869,0.3891891837120057,0.3837837874889373,0.3513513505458832,0.3297297358512878,0.3027026951313019,0.2918919026851654,0.2378378361463547,0.26486486196517944,0.227027028799057,0.227027028799057,0.21081081032752996,0.20000000298023224,0.1783783733844757,0.18378378450870514,0.1459459513425827,0.1783783733844757,0.12972973287105558,0.1513513475656509,0.12432432174682614,0.16756756603717804,0.1189189180731773,0.1459459513425827,0.1135135143995285,0.1729729771614075,0.1351351290941238,0.20540539920330048,0.2216216176748276,0.2486486434936524,0.24324324727058405,0.21621622145175934,0.1783783733844757,0.18378378450870514,0.1351351290941238,0.12972973287105558,0.1135135143995285,0.1513513475656509,0.09189189225435256,0.1135135143995285,0.09729729592800143,0.1189189180731773,0.048648647964000716,0.054054055362939835,0.05945945903658866,0.08108107745647432,0.09729729592800143,0.1513513475656509,0.1351351290941238,0.18918919563293451,0.1783783733844757,0.19459459185600286,0.1729729771614075,0.23243242502212524,0.15675675868988034,0.09189189225435256,0.0,0.14054054021835327,0.2864864766597748,0.4432432353496552,0.9027026891708376,1.0,0.7027027010917664,0.4324324429035187,0.2864864766597748,0.3027026951313019,0.2864864766597748,0.2864864766597748,0.26486486196517944,0.2864864766597748,0.2540540397167206,0.3027026951313019,0.2810810804367065,0.3351351320743561,0.3567567467689514,0.3621621727943421,0.3351351320743561,0.3729729652404785,0.3675675690174103,0.4270270168781281,0.39459457993507385,0.0,0.0,0.0,0.0,0.0,0.0,0.0,0.0,0.0,0.0,0.0,0.0,0.0,0.0,0.0,0.0,0.0,0.0,0.0,0.0,0.0,0.0,0.0,0.0,0.0,0.0,0.0,0.0,0.0,0.0,0.0,0.0,0.0,0.0,0.0,0.0,0.0,0.0,0.0,0.0,0.0,0.0,0.0,0.0,0.0,0.0,0.0,0.0,0.0,0.0,0.0,0.0,0.0,0.0,0.0,0.0,0.0,0.0,0.0,0.0,0.0,0.0,0.0,0.0,0.0,0.0,0.0,0.0,0.0,0.0,0.0,0.0,0.0,0.0,0.0,0.0,0.0
1.0,0.789137363433838,0.3833865821361542,0.10862620174884796,0.14696486294269562,0.11182108521461487,0.09904153645038603,0.0670926496386528,0.0766773149371147,0.051118209958076484,0.0670926496386528,0.0607028752565384,0.07028754055500032,0.04792332276701927,0.0670926496386528,0.0607028752565384,0.0670926496386528,0.0670926496386528,0.08306708931922913,0.0766773149371147,0.09904153645038603,0.09265175461769104,0.1182108595967293,0.11501597613096234,0.1405750811100006,0.14696486294269562,0.18530350923538208,0.194888174533844,0.2204472869634628,0.23003195226192474,0.2555910646915436,0.2619808316230774,0.2747603952884674,0.2619808316230774,0.2555910646915436,0.207667738199234,0.18530350923538208,0.1405750811100006,0.12140575051307675,0.0766773149371147,0.0670926496386528,0.04792332276701927,0.04472843557596207,0.03514377027750016,0.04153354465961456,0.025559104979038242,0.04153354465961456,0.028753994032740593,0.04472843557596207,0.03833865746855737,0.04472843557596207,0.03833865746855737,0.051118209958076484,0.04153354465961456,0.051118209958076484,0.03514377027750016,0.04153354465961456,0.025559104979038242,0.04472843557596207,0.028753994032740593,0.03194888308644295,0.01597444154322147,0.03194888308644295,0.019169328734278682,0.028753994032740593,0.01597444154322147,0.025559104979038242,0.0031948881223797802,0.019169328734278682,0.0,0.022364217787981037,0.0063897762447595605,0.01597444154322147,0.0031948881223797802,0.022364217787981037,0.009584664367139341,0.01597444154322147,0.012779552489519121,0.025559104979038242,0.009584664367139341,0.025559104979038242,0.012779552489519121,0.025559104979038242,0.0063897762447595605,0.025559104979038242,0.01597444154322147,0.022364217787981037,0.022364217787981037,0.025559104979038242,0.019169328734278682,0.028753994032740593,0.01597444154322147,0.025559104979038242,0.019169328734278682,0.03194888308644295,0.022364217787981037,0.04153354465961456,0.025559104979038242,0.03833865746855737,0.019169328734278682,0.04153354465961456,0.022364217787981037,0.03514377027750016,0.022364217787981037,0.03833865746855737,0.019169328734278682,0.03194888308644295,0.025559104979038242,0.03514377027750016,0.019169328734278682,0.0670926496386528,0.0607028752565384,0.0766773149371147,0.0607028752565384,0.0607028752565384,0.03833865746855737,0.04472843557596207,0.03833865746855737,0.04472843557596207,0.03833865746855737,0.051118209958076484,0.03833865746855737,0.0607028752565384,0.08306708931922913,0.15015974640846252,0.2779552638530731,0.5399361252784729,0.7859424948692321,0.9872204661369326,0.725239634513855,0.3674121499061584,0.1277955323457718,0.11182108521461487,0.06389776617288588,0.04153354465961456,0.028753994032740593,0.028753994032740593,0.0063897762447595605,0.022364217787981037,0.009584664367139341,0.022364217787981037,0.009584664367139341,0.019169328734278682,0.01597444154322147,0.03194888308644295,0.022364217787981037,0.04153354465961456,0.04153354465961456,0.0607028752565384,0.0670926496386528,0.09265175461769104,0.09584664553403854,0.1246006414294243,0.1277955323457718,0.0,0.0,0.0,0.0,0.0,0.0,0.0,0.0,0.0,0.0,0.0,0.0,0.0,0.0,0.0,0.0,0.0,0.0,0.0,0.0,0.0,0.0,0.0,0.0,0.0,0.0,0.0,0.0,0.0,0.0,0.0,0.0,0.0,0.0
0.8622754216194153,0.7634730339050292,0.33532935380935663,0.0,0.06886227428913116,0.08383233845233917,0.11377245187759401,0.16766467690467832,0.16766467690467832,0.14970059692859647,0.22155688703060156,0.2335329353809357,0.2305389195680618,0.14071856439113614,0.2125748544931412,0.3113772571086884,0.269461065530777,0.21856287121772766,0.2335329353809357,0.3383233547210693,0.3203592896461486,0.2125748544931412,0.3742514848709106,0.41916167736053467,0.2874251604080201,0.2395209521055221,0.3113772571086884,0.386227548122406,0.3203592896461486,0.3053892254829407,0.326347291469574,0.341317355632782,0.3502993881702423,0.3682634830474854,0.3652694523334503,0.33532935380935663,0.2904191613197326,0.24251496791839602,0.26047903299331665,0.2964071929454804,0.3233532905578613,0.21556885540485385,0.2664670646190644,0.2664670646190644,0.27544909715652466,0.26047903299331665,0.2395209521055221,0.2245509028434753,0.2514970004558563,0.2664670646190644,0.2994011938571929,0.31736525893211365,0.3113772571086884,0.3083832263946533,0.329341322183609,0.3323353230953217,0.3203592896461486,0.314371258020401,0.3622754514217377,0.3203592896461486,0.22754490375518802,0.2664670646190644,0.2664670646190644,0.2784431278705597,0.326347291469574,0.3053892254829407,0.30239519476890564,0.3383233547210693,0.4640718698501587,0.6467065811157225,0.832335352897644,1.0,0.901197612285614,0.4520958065986633,0.1347305327653885,0.14371258020401004,0.25748503208160395,0.28143712878227234,0.314371258020401,0.25449103116989136,0.269461065530777,0.30239519476890564,0.3473053872585297,0.3922155797481536,0.272455096244812,0.27544909715652466,0.3203592896461486,0.0,0.0,0.0,0.0,0.0,0.0,0.0,0.0,0.0,0.0,0.0,0.0,0.0,0.0,0.0,0.0,0.0,0.0,0.0,0.0,0.0,0.0,0.0,0.0,0.0,0.0,0.0,0.0,0.0,0.0,0.0,0.0,0.0,0.0,0.0,0.0,0.0,0.0,0.0,0.0,0.0,0.0,0.0,0.0,0.0,0.0,0.0,0.0,0.0,0.0,0.0,0.0,0.0,0.0,0.0,0.0,0.0,0.0,0.0,0.0,0.0,0.0,0.0,0.0,0.0,0.0,0.0,0.0,0.0,0.0,0.0,0.0,0.0,0.0,0.0,0.0,0.0,0.0,0.0,0.0,0.0,0.0,0.0,0.0,0.0,0.0,0.0,0.0,0.0,0.0,0.0,0.0,0.0,0.0,0.0,0.0,0.0,0.0,0.0,0.0,0.0
1.0,0.9212598204612734,0.751968502998352,0.5787401795387268,0.3897637724876404,0.2874015867710113,0.2677165269851685,0.27559053897857666,0.27559053897857666,0.25196850299835205,0.2637795209884643,0.29133859276771545,0.30708661675453186,0.2874015867710113,0.28346458077430725,0.30708661675453186,0.3425196707248688,0.3149606287479401,0.3031496107578277,0.3622047305107117,0.3385826647281647,0.3307086527347565,0.3543307185173034,0.36614173650741577,0.3464567065238953,0.3267716467380524,0.3543307185173034,0.35039371252059937,0.36614173650741577,0.3543307185173034,0.3582677245140076,0.3858267664909362,0.3425196707248688,0.311023622751236,0.33464565873146057,0.35039371252059937,0.3267716467380524,0.29133859276771545,0.27559053897857666,0.2795275449752808,0.25196850299835205,0.2086614221334457,0.20472441613674164,0.21653543412685394,0.1929133832454681,0.1968503892421722,0.1929133832454681,0.1968503892421722,0.17322835326194766,0.15354330837726593,0.17322835326194766,0.1614173203706741,0.14960630238056186,0.11811023950576785,0.12598425149917605,0.13385826349258426,0.12992125749588015,0.07874015718698503,0.05905511975288391,0.0984251946210861,0.11023622006177902,0.07086614519357681,0.05905511975288391,0.07874015718698503,0.05511811003088951,0.09055118262767793,0.0826771631836891,0.039370078593492515,0.05905511975288391,0.05905511975288391,0.06692913174629211,0.09055118262767793,0.07086614519357681,0.03149606287479401,0.04724409431219101,0.06299212574958801,0.04724409431219101,0.05511811003088951,0.05905511975288391,0.06692913174629211,0.06692913174629211,0.06299212574958801,0.05118110403418541,0.039370078593492515,0.04724409431219101,0.03149606287479401,0.05905511975288391,0.06299212574958801,0.043307088315486915,0.035433072596788406,0.043307088315486915,0.05905511975288391,0.023622047156095505,0.02755905501544476,0.03149606287479401,0.039370078593492515,0.05118110403418541,0.023622047156095505,0.05905511975288391,0.0826771631836891,0.07874015718698503,0.05905511975288391,0.05118110403418541,0.07086614519357681,0.07874015718698503,0.04724409431219101,0.03149606287479401,0.07086614519357681,0.039370078593492515,0.0,0.02755905501544476,0.07874015718698503,0.05905511975288391,0.05905511975288391,0.12598425149917605,0.3622047305107117,0.6377952694892883,0.7677165269851683,0.8425197005271908,0.791338562965393,0.5944882035255432,0.4015747904777527,0.2440944910049438,0.16535432636737826,0.13385826349258426,0.12598425149917605,0.1220472455024719,0.15354330837726593,0.14960630238056186,0.14173229038715365,0.12598425149917605,0.14173229038715365,0.16535432636737826,0.16535432636737826,0.18503937125206,0.1968503892421722,0.18897637724876404,0.18503937125206,0.18897637724876404,0.1968503892421722,0.18110236525535586,0.18897637724876404,0.0,0.0,0.0,0.0,0.0,0.0,0.0,0.0,0.0,0.0,0.0,0.0,0.0,0.0,0.0,0.0,0.0,0.0,0.0,0.0,0.0,0.0,0.0,0.0,0.0,0.0,0.0,0.0,0.0,0.0,0.0,0.0,0.0,0.0,0.0,0.0,0.0,0.0,0.0,0.0,0.0,0.0,0.0,0.0,0.0,0.0
1.0,0.8794326186180114,0.5390070676803589,0.2340425550937652,0.1560283750295639,0.12411347776651382,0.11347517371177672,0.11347517371177672,0.09929078072309494,0.10283687710762024,0.09929078072309494,0.08865248411893842,0.07446808367967606,0.06737588346004486,0.06737588346004486,0.060283686965703964,0.03546099364757538,0.039007093757390976,0.03546099364757538,0.03546099364757538,0.021276595070958138,0.03191489353775979,0.03546099364757538,0.024822695180773728,0.039007093757390976,0.03546099364757538,0.05673758685588836,0.07446808367967606,0.10283687710762024,0.11347517371177672,0.131205677986145,0.1382978707551956,0.15248227119445798,0.1631205677986145,0.1702127605676651,0.1702127605676651,0.17730496823787684,0.16666667163372034,0.1489361673593521,0.131205677986145,0.131205677986145,0.1453900635242462,0.1595744639635086,0.1560283750295639,0.15248227119445798,0.16666667163372034,0.173758864402771,0.18794326484203336,0.19148936867713928,0.1808510571718216,0.18794326484203336,0.1843971610069275,0.1808510571718216,0.173758864402771,0.1843971610069275,0.16666667163372034,0.1702127605676651,0.1631205677986145,0.15248227119445798,0.1453900635242462,0.15248227119445798,0.1453900635242462,0.1595744639635086,0.173758864402771,0.1808510571718216,0.1702127605676651,0.1808510571718216,0.17730496823787684,0.173758864402771,0.1631205677986145,0.1631205677986145,0.1631205677986145,0.1631205677986145,0.1453900635242462,0.15248227119445798,0.1560283750295639,0.1595744639635086,0.1560283750295639,0.1489361673593521,0.15248227119445798,0.15248227119445798,0.1595744639635086,0.1631205677986145,0.17730496823787684,0.1702127605676651,0.2588652372360229,0.5177304744720458,0.758865237236023,0.9361702203750608,0.8333333134651185,0.5177304744720458,0.19503545761108398,0.10992907732725143,0.08865248411893842,0.06382978707551958,0.05319149047136306,0.05319149047136306,0.04964539036154747,0.04255319014191628,0.03546099364757538,0.024822695180773728,0.007092198356986045,0.01418439671397209,0.01418439671397209,0.028368793427944187,0.01773049682378769,0.024822695180773728,0.021276595070958138,0.010638297535479069,0.0,0.010638297535479069,0.0,0.0,0.0,0.0,0.0,0.0,0.0,0.0,0.0,0.0,0.0,0.0,0.0,0.0,0.0,0.0,0.0,0.0,0.0,0.0,0.0,0.0,0.0,0.0,0.0,0.0,0.0,0.0,0.0,0.0,0.0,0.0,0.0,0.0,0.0,0.0,0.0,0.0,0.0,0.0,0.0,0.0,0.0,0.0,0.0,0.0,0.0,0.0,0.0,0.0,0.0,0.0,0.0,0.0,0.0,0.0,0.0,0.0,0.0,0.0,0.0,0.0,0.0,0.0,0.0,0.0,0.0,0.0,0.0,0.0,0.0,0.0,0.0,0.0,0.0,0.0,0.0
0.9368420839309692,0.8140350580215455,0.4666666686534881,0.1859649121761322,0.07368420809507371,0.06666667014360428,0.035087719559669495,0.02456140331923962,0.01754385977983475,0.01754385977983475,0.01754385977983475,0.01754385977983475,0.01754385977983475,0.01754385977983475,0.03157894685864448,0.02456140331923962,0.03157894685864448,0.03157894685864448,0.028070176020264626,0.007017544005066156,0.0,0.0035087720025330773,0.010526316240429878,0.007017544005066156,0.01754385977983475,0.028070176020264626,0.04912280663847924,0.06666667014360428,0.09824561327695848,0.11929824203252792,0.14035087823867798,0.16140350699424744,0.17192982137203214,0.1754385977983475,0.1754385977983475,0.16491228342056274,0.16491228342056274,0.1473684161901474,0.14035087823867798,0.12631578743457794,0.1122807040810585,0.12631578743457794,0.13333334028720856,0.1473684161901474,0.1508771926164627,0.1473684161901474,0.15438596904277802,0.16491228342056274,0.1859649121761322,0.1859649121761322,0.19649122655391693,0.18947368860244754,0.20000000298023224,0.1929824501276016,0.18947368860244754,0.17894737422466278,0.1754385977983475,0.16491228342056274,0.15789473056793213,0.15789473056793213,0.15438596904277802,0.16842105984687805,0.1824561357498169,0.16491228342056274,0.1824561357498169,0.1824561357498169,0.1859649121761322,0.1929824501276016,0.2070175409317017,0.2035087645053864,0.2140350937843323,0.19649122655391693,0.2105263173580169,0.1859649121761322,0.19649122655391693,0.1929824501276016,0.17894737422466278,0.1754385977983475,0.17894737422466278,0.17894737422466278,0.1929824501276016,0.1824561357498169,0.1929824501276016,0.20000000298023224,0.20000000298023224,0.2070175409317017,0.2140350937843323,0.2105263173580169,0.2105263173580169,0.2105263173580169,0.2280701696872711,0.2105263173580169,0.2491228133440017,0.4701754450798035,0.7228069901466369,0.9754385948181152,1.0,0.7298245429992676,0.34035086631774897,0.2175438553094864,0.17894737422466278,0.15789473056793213,0.1438596546649933,0.13333334028720856,0.13333334028720856,0.11929824203252792,0.1122807040810585,0.09473684430122377,0.07719298452138901,0.07017543911933899,0.06666667014360428,0.0,0.0,0.0,0.0,0.0,0.0,0.0,0.0,0.0,0.0,0.0,0.0,0.0,0.0,0.0,0.0,0.0,0.0,0.0,0.0,0.0,0.0,0.0,0.0,0.0,0.0,0.0,0.0,0.0,0.0,0.0,0.0,0.0,0.0,0.0,0.0,0.0,0.0,0.0,0.0,0.0,0.0,0.0,0.0,0.0,0.0,0.0,0.0,0.0,0.0,0.0,0.0,0.0,0.0,0.0,0.0,0.0,0.0,0.0,0.0,0.0,0.0,0.0,0.0,0.0,0.0,0.0,0.0,0.0,0.0,0.0,0.0,0.0,0.0,0.0,0.0,0.0
0.9752252101898192,0.5990990996360778,0.1936936974525452,0.1644144207239151,0.19819819927215576,0.1689189225435257,0.18918919563293451,0.171171173453331,0.18018017709255216,0.17567567527294156,0.2027027010917664,0.18918919563293451,0.20720720291137693,0.19594594836235046,0.21621622145175934,0.20945945382118225,0.2252252250909805,0.23423422873020164,0.2477477490901948,0.25675675272941584,0.2815315425395965,0.28378379344940186,0.3220720589160919,0.3243243098258972,0.36486485600471497,0.3783783912658691,0.40765765309333796,0.4054054021835328,0.4054054021835328,0.37612614035606384,0.3558558523654938,0.3085585534572601,0.2747747600078583,0.22747747600078586,0.22072072327137,0.19594594836235046,0.1936936974525452,0.17567567527294156,0.18018017709255216,0.1689189225435257,0.18243242800235748,0.171171173453331,0.17567567527294156,0.171171173453331,0.1779279261827469,0.171171173453331,0.18468467891216284,0.17567567527294156,0.18018017709255216,0.15540540218353271,0.18468467891216284,0.1779279261827469,0.21171170473098755,0.20045045018196106,0.2297297269105911,0.2387387454509735,0.2545045018196105,0.22747747600078586,0.2252252250909805,0.19594594836235046,0.1936936974525452,0.19144144654273984,0.24549549818038946,0.315315306186676,0.4166666567325593,0.4887387454509735,0.5945945978164673,0.6824324131011963,0.7995495200157166,0.9031531810760498,0.8828828930854797,0.8986486196517944,0.9752252101898192,1.0,0.9707207083702089,0.5855855941772461,0.2725225090980529,0.11036036163568497,0.08558558672666547,0.04054053872823716,0.03603603690862656,0.022522522136569027,0.024774774909019474,0.0,0.00900900922715664,0.0,0.0,0.0,0.0,0.0,0.0,0.0,0.0,0.0,0.0,0.0,0.0,0.0,0.0,0.0,0.0,0.0,0.0,0.0,0.0,0.0,0.0,0.0,0.0,0.0,0.0,0.0,0.0,0.0,0.0,0.0,0.0,0.0,0.0,0.0,0.0,0.0,0.0,0.0,0.0,0.0,0.0,0.0,0.0,0.0,0.0,0.0,0.0,0.0,0.0,0.0,0.0,0.0,0.0,0.0,0.0,0.0,0.0,0.0,0.0,0.0,0.0,0.0,0.0,0.0,0.0,0.0,0.0,0.0,0.0,0.0,0.0,0.0,0.0,0.0,0.0,0.0,0.0,0.0,0.0,0.0,0.0,0.0,0.0,0.0,0.0,0.0,0.0,0.0,0.0,0.0,0.0,0.0,0.0,0.0,0.0,0.0,0.0,0.0,0.0,0.0,0.0,0.0
0.7979539632797242,0.6726342439651489,0.3375959098339081,0.14833760261535645,0.1048593372106552,0.08695652335882187,0.05370844155550003,0.03580562770366669,0.017902813851833344,0.02046035788953304,0.0,0.028132991865277287,0.01534526888281107,0.028132991865277287,0.028132991865277287,0.03836316987872124,0.025575447827577598,0.03580562770366669,0.03069053776562214,0.046035803854465485,0.04347826167941093,0.06393861770629883,0.07161125540733337,0.08951406925916673,0.08184143155813217,0.1048593372106552,0.11764705926179887,0.14833760261535645,0.1611253172159195,0.1943733990192413,0.19948849081993106,0.2276214808225632,0.22250638902187347,0.24296675622463226,0.2327365726232529,0.2250639349222183,0.18158568441867828,0.17135550081729886,0.1202046051621437,0.09718669950962064,0.06905370950698854,0.06649616360664369,0.06649616360664369,0.06138107553124428,0.040920715779066086,0.05882352963089942,0.04347826167941093,0.05370844155550003,0.033248081803321845,0.04347826167941093,0.06649616360664369,0.08695652335882187,0.08184143155813217,0.08695652335882187,0.06905370950698854,0.048593349754810326,0.048593349754810326,0.06138107553124428,0.02046035788953304,0.03580562770366669,0.056265983730554574,0.03836316987872124,0.056265983730554574,0.05370844155550003,0.05370844155550003,0.06138107553124428,0.03836316987872124,0.046035803854465485,0.028132991865277287,0.03836316987872124,0.056265983730554574,0.056265983730554574,0.06905370950698854,0.09207160770893097,0.06649616360664369,0.06138107553124428,0.06393861770629883,0.08439897745847702,0.0946291536092758,0.1202046051621437,0.10741688311100006,0.1355498731136322,0.1253196895122528,0.14322251081466675,0.10741688311100006,0.1355498731136322,0.1304347813129425,0.16368286311626434,0.16368286311626434,0.18925830721855166,0.18414321541786194,0.19693094491958615,0.20460358262062076,0.21739129722118372,0.2352941185235977,0.2250639349222183,0.248081848025322,0.2710997462272644,0.25831201672554016,0.2787723839282989,0.28900256752967834,0.2992327511310577,0.29156011343002314,0.30690535902976984,0.3248081803321838,0.3401534557342529,0.3401534557342529,0.3452685475349426,0.3478260934352875,0.36317136883735657,0.3657289147377015,0.3708439767360687,0.3657289147377015,0.3887467980384826,0.38363170623779297,0.3964194357395172,0.3759590685367584,0.38363170623779297,0.3580562770366669,0.3529411852359772,0.3375959098339081,0.3427110016345977,0.32992327213287354,0.33248081803321844,0.3196930885314941,0.33248081803321844,0.33503836393356323,0.3734015226364136,0.42710998654365534,0.6035805344581604,0.8005114793777466,1.0,0.9258311986923216,0.6189258098602295,0.3759590685367584,0.322250634431839,0.33503836393356323,0.3196930885314941,0.28644502162933344,0.2659846544265748,0.2531969249248505,0.2634271085262298,0.2685422003269196,0.2813299298286438,0.2787723839282989,0.2992327511310577,0.304347813129425,0.3145779967308044,0.3145779967308044,0.3248081803321838,0.3196930885314941,0.33248081803321844,0.3171355426311493,0.3171355426311493,0.30690535902976984,0.3196930885314941,0.30690535902976984,0.0,0.0,0.0,0.0,0.0,0.0,0.0,0.0,0.0,0.0,0.0,0.0,0.0,0.0,0.0,0.0,0.0,0.0,0.0,0.0,0.0,0.0,0.0,0.0,0.0,0.0,0.0,0.0,0.0,0.0,0.0
0.6934306621551514,0.4726277291774749,0.0875912383198738,0.009124087169766423,0.014598540030419828,0.0364963486790657,0.012773722410202023,0.023722628131508827,0.0,0.02554744482040405,0.03284671530127525,0.043795619159936884,0.023722628131508827,0.052919708192348466,0.043795619159936884,0.06751824915409088,0.0729926973581314,0.0656934306025505,0.06386861205101013,0.08941605687141417,0.09671533107757567,0.09854014962911603,0.10401459783315656,0.11861313879489895,0.1332116723060608,0.14963503181934354,0.16788321733474731,0.17883211374282834,0.16788321733474731,0.21167883276939392,0.1897810250520706,0.1861313879489898,0.14598539471626276,0.1332116723060608,0.09671533107757567,0.07846715301275252,0.06934306770563126,0.0729926973581314,0.03832116723060608,0.04562043771147728,0.03284671530127525,0.043795619159936884,0.049270074814558015,0.03284671530127525,0.031021898612380024,0.0510948896408081,0.043795619159936884,0.04562043771147728,0.0364963486790657,0.04744525626301765,0.056569341570138924,0.06386861205101013,0.06386861205101013,0.09489051252603532,0.10218977928161617,0.12773722410202026,0.11861313879489895,0.12773722410202026,0.10218977928161617,0.10036496073007584,0.08576641976833342,0.08394160866737364,0.07846715301275252,0.06934306770563126,0.09671533107757567,0.13138686120510099,0.19708029925823206,0.2791970670223236,0.35583940148353577,0.4160583913326265,0.4726277291774749,0.5583941340446472,0.7317517995834351,0.9160584211349488,1.0,0.7572992444038391,0.260948896408081,0.10583941638469696,0.0510948896408081,0.054744526743888834,0.04014598578214645,0.023722628131508827,0.010948904789984223,0.016423357650637627,0.016423357650637627,0.01824817433953285,0.014598540030419828,0.0018248175038024785,0.0,0.0,0.0,0.0,0.0,0.0,0.0,0.0,0.0,0.0,0.0,0.0,0.0,0.0,0.0,0.0,0.0,0.0,0.0,0.0,0.0,0.0,0.0,0.0,0.0,0.0,0.0,0.0,0.0,0.0,0.0,0.0,0.0,0.0,0.0,0.0,0.0,0.0,0.0,0.0,0.0,0.0,0.0,0.0,0.0,0.0,0.0,0.0,0.0,0.0,0.0,0.0,0.0,0.0,0.0,0.0,0.0,0.0,0.0,0.0,0.0,0.0,0.0,0.0,0.0,0.0,0.0,0.0,0.0,0.0,0.0,0.0,0.0,0.0,0.0,0.0,0.0,0.0,0.0,0.0,0.0,0.0,0.0,0.0,0.0,0.0,0.0,0.0,0.0,0.0,0.0,0.0,0.0,0.0,0.0,0.0,0.0,0.0,0.0,0.0
1.0,0.8701657652854918,0.37292817234992975,0.0,0.046961326152086265,0.11049723625183104,0.08563535660505295,0.07182320207357408,0.06077348068356514,0.06077348068356514,0.05801105126738549,0.06629834324121475,0.06629834324121475,0.0635359138250351,0.052486188709735884,0.0635359138250351,0.0635359138250351,0.06077348068356514,0.06077348068356514,0.04972375556826592,0.052486188709735884,0.0690607726573944,0.06629834324121475,0.06629834324121475,0.07182320207357408,0.08563535660505295,0.0883977934718132,0.10220994800329207,0.11049723625183104,0.1215469613671303,0.1325966864824295,0.13535912334918976,0.1519336998462677,0.16850829124450686,0.16850829124450686,0.17955800890922546,0.17955800890922546,0.1850828677415848,0.1850828677415848,0.16850829124450686,0.16022099554538727,0.15469613671302798,0.1408839821815491,0.12707182765007022,0.1215469613671303,0.1215469613671303,0.10497237741947177,0.10773480683565137,0.10773480683565137,0.11325966566801073,0.10220994800329207,0.10773480683565137,0.10497237741947177,0.09668508172035216,0.10220994800329207,0.10497237741947177,0.10773480683565137,0.11878453195095062,0.11878453195095062,0.11325966566801073,0.10497237741947177,0.11325966566801073,0.11325966566801073,0.11878453195095062,0.10497237741947177,0.10497237741947177,0.09668508172035216,0.09116022288799283,0.09116022288799283,0.09668508172035216,0.0883977934718132,0.0883977934718132,0.0883977934718132,0.0828729271888733,0.08563535660505295,0.09392265230417253,0.09944751113653184,0.09944751113653184,0.09392265230417253,0.09392265230417253,0.10220994800329207,0.10497237741947177,0.10497237741947177,0.157458558678627,0.2679558098316193,0.5248618721961975,0.8287292718887329,0.980663001537323,0.6325966715812684,0.13812154531478882,0.016574585810303688,0.10497237741947177,0.07734806835651398,0.06629834324121475,0.04143646359443665,0.04972375556826592,0.033149171620607376,0.03038674034178257,0.052486188709735884,0.05801105126738549,0.046961326152086265,0.055248618125915534,0.04972375556826592,0.052486188709735884,0.052486188709735884,0.052486188709735884,0.055248618125915534,0.06077348068356514,0.0,0.0,0.0,0.0,0.0,0.0,0.0,0.0,0.0,0.0,0.0,0.0,0.0,0.0,0.0,0.0,0.0,0.0,0.0,0.0,0.0,0.0,0.0,0.0,0.0,0.0,0.0,0.0,0.0,0.0,0.0,0.0,0.0,0.0,0.0,0.0,0.0,0.0,0.0,0.0,0.0,0.0,0.0,0.0,0.0,0.0,0.0,0.0,0.0,0.0,0.0,0.0,0.0,0.0,0.0,0.0,0.0,0.0,0.0,0.0,0.0,0.0,0.0,0.0,0.0,0.0,0.0,0.0,0.0,0.0,0.0,0.0,0.0,0.0,0.0,0.0,0.0,0.0,0.0,0.0
0.948275864124298,0.8620689511299133,0.35775861144065857,0.09051723778247832,0.0732758641242981,0.0732758641242981,0.047413792461156866,0.03879310190677643,0.025862069800496098,0.03448275849223137,0.030172413215041164,0.03448275849223137,0.021551724523305886,0.03448275849223137,0.021551724523305886,0.04310344904661178,0.0517241396009922,0.06896551698446274,0.06465516984462738,0.09482758492231368,0.09051723778247832,0.11206896603107452,0.12931033968925476,0.17241379618644712,0.1767241358757019,0.22413793206214905,0.2543103396892548,0.29741379618644714,0.3362068831920624,0.3793103396892548,0.38793104887008667,0.4439655244350432,0.43534481525421137,0.4568965435028076,0.4224137961864473,0.4310344755649568,0.38793104887008667,0.3663793206214905,0.3189655244350433,0.2844827473163605,0.25,0.2327586263418198,0.19827586412429807,0.20258620381355286,0.16810344159603116,0.16810344159603116,0.1551724076271057,0.15948276221752167,0.14224137365818024,0.1465517282485962,0.13793103396892548,0.16379310190677646,0.17241379618644712,0.1853448301553726,0.1853448301553726,0.2155172377824784,0.19396552443504333,0.2198275923728943,0.19827586412429807,0.2068965584039688,0.18965516984462732,0.19827586412429807,0.15948276221752167,0.17241379618644712,0.13793103396892548,0.13793103396892548,0.12931033968925476,0.125,0.1034482792019844,0.1034482792019844,0.07758620381355286,0.07758620381355286,0.06465516984462738,0.06896551698446274,0.05603448301553726,0.06034482643008233,0.03879310190677643,0.0517241396009922,0.03879310190677643,0.047413792461156866,0.03879310190677643,0.04310344904661178,0.025862069800496098,0.03448275849223137,0.025862069800496098,0.03448275849223137,0.021551724523305886,0.03879310190677643,0.004310344811528921,0.030172413215041164,0.025862069800496098,0.03448275849223137,0.030172413215041164,0.030172413215041164,0.021551724523305886,0.047413792461156866,0.025862069800496098,0.04310344904661178,0.047413792461156866,0.07758620381355286,0.0732758641242981,0.12068965286016466,0.1465517282485962,0.18965516984462732,0.19396552443504333,0.1767241358757019,0.14224137365818024,0.13793103396892548,0.11206896603107452,0.10775861889123917,0.09051723778247832,0.10775861889123917,0.11206896603107452,0.1551724076271057,0.19396552443504333,0.4439655244350432,0.818965494632721,1.0,0.8232758641242981,0.34913793206214905,0.1034482792019844,0.08189655095338821,0.06034482643008233,0.0732758641242981,0.025862069800496098,0.03448275849223137,0.004310344811528921,0.021551724523305886,0.004310344811528921,0.012931034900248049,0.0,0.0,0.0,0.0,0.0,0.0,0.0,0.0,0.0,0.0,0.0,0.0,0.0,0.0,0.0,0.0,0.0,0.0,0.0,0.0,0.0,0.0,0.0,0.0,0.0,0.0,0.0,0.0,0.0,0.0,0.0,0.0,0.0,0.0,0.0,0.0,0.0,0.0,0.0,0.0,0.0,0.0,0.0,0.0,0.0,0.0,0.0,0.0,0.0,0.0,0.0,0.0,0.0,0.0,0.0,0.0,0.0,0.0
1.0,0.9357541799545286,0.4357541799545288,0.04469273611903191,0.07541899383068082,0.11452513933181765,0.08659217506647111,0.04748603329062461,0.05027933046221733,0.03351955488324165,0.05027933046221733,0.019553072750568383,0.013966480270028114,0.011173184029757977,0.011173184029757977,0.025139665231108662,0.011173184029757977,0.03631284832954407,0.03351955488324165,0.041899442672729485,0.03351955488324165,0.041899442672729485,0.03631284832954407,0.04469273611903191,0.05307262390851975,0.06983239948749542,0.05027933046221733,0.07821229100227356,0.06145251542329789,0.07541899383068082,0.06983239948749542,0.09217876940965652,0.10055866092443463,0.11452513933181765,0.12290503084659575,0.1312849223613739,0.1256983280181885,0.1340782195329666,0.13966479897499084,0.12011173367500305,0.11173184216022493,0.10055866092443463,0.08100558817386627,0.08938547223806381,0.07262569665908812,0.07262569665908812,0.055865921080112464,0.07541899383068082,0.07821229100227356,0.07821229100227356,0.06983239948749542,0.09217876940965652,0.07821229100227356,0.08659217506647111,0.06983239948749542,0.08659217506647111,0.06983239948749542,0.08659217506647111,0.08100558817386627,0.06983239948749542,0.0670391097664833,0.07821229100227356,0.07262569665908812,0.0642458125948906,0.07262569665908812,0.08100558817386627,0.0670391097664833,0.06983239948749542,0.08100558817386627,0.06983239948749542,0.06983239948749542,0.08379888534545897,0.06983239948749542,0.06983239948749542,0.07541899383068082,0.1536312848329544,0.2653631269931793,0.5223463773727418,0.8575419187545777,0.9916201233863832,0.5055865645408631,0.04748603329062461,0.0642458125948906,0.10055866092443463,0.0670391097664833,0.05027933046221733,0.039106145501136766,0.039106145501136766,0.02234636805951596,0.002793296007439494,0.013966480270028114,0.011173184029757977,0.0,0.008379888720810413,0.013966480270028114,0.013966480270028114,0.002793296007439494,0.025139665231108662,0.016759777441620827,0.027932960540056232,0.039106145501136766,0.05027933046221733,0.05027933046221733,0.06145251542329789,0.0670391097664833,0.06145251542329789,0.06983239948749542,0.10055866092443463,0.0,0.0,0.0,0.0,0.0,0.0,0.0,0.0,0.0,0.0,0.0,0.0,0.0,0.0,0.0,0.0,0.0,0.0,0.0,0.0,0.0,0.0,0.0,0.0,0.0,0.0,0.0,0.0,0.0,0.0,0.0,0.0,0.0,0.0,0.0,0.0,0.0,0.0,0.0,0.0,0.0,0.0,0.0,0.0,0.0,0.0,0.0,0.0,0.0,0.0,0.0,0.0,0.0,0.0,0.0,0.0,0.0,0.0,0.0,0.0,0.0,0.0,0.0,0.0,0.0,0.0,0.0,0.0,0.0,0.0,0.0,0.0,0.0,0.0,0.0,0.0,0.0,0.0,0.0,0.0
1.0,0.5919395685195922,0.4408060312271118,0.2720403075218201,0.20654912292957306,0.17632241547107694,0.14861461520195007,0.12090680003166195,0.13098236918449402,0.13602015376091006,0.13098236918449402,0.10579345375299452,0.11838790774345398,0.133501261472702,0.09319899231195447,0.09319899231195447,0.09823677688837057,0.10579345375299452,0.10327456146478654,0.09068010002374648,0.07556675374507904,0.09571788460016248,0.10327456146478654,0.09823677688837057,0.08816120773553847,0.09571788460016248,0.11083123087882996,0.10831234604120256,0.12090680003166195,0.13602015376091006,0.16876573860645291,0.19395466148853305,0.20151133835315704,0.229219138622284,0.2191435694694519,0.229219138622284,0.2770780920982361,0.25692695379257197,0.2795969843864441,0.2795969843864441,0.23425692319869995,0.2115869075059891,0.17884130775928495,0.188916876912117,0.14861461520195007,0.14357683062553406,0.133501261472702,0.12342569231987,0.10327456146478654,0.10831234604120256,0.08564231544733046,0.10579345375299452,0.08816120773553847,0.08060453087091446,0.07808564603328705,0.07556675374507904,0.07052896916866302,0.07052896916866302,0.08564231544733046,0.08564231544733046,0.08060453087091446,0.062972292304039,0.062972292304039,0.07052896916866302,0.062972292304039,0.08816120773553847,0.07052896916866302,0.07052896916866302,0.07304786145687102,0.04785894230008125,0.062972292304039,0.13602015376091006,0.07556675374507904,0.11083123087882996,0.11586901545524594,0.07556675374507904,0.16624684631824493,0.11335012316703795,0.09823677688837057,0.12090680003166195,0.16876573860645291,0.18136020004749293,0.2141057997941971,0.229219138622284,0.18387909233570096,0.24685138463974,0.3073047995567322,0.2846347689628601,0.2770780920982361,0.26448363065719604,0.2770780920982361,0.25692695379257197,0.236775815486908,0.2115869075059891,0.20403023064136505,0.2695214152336121,0.14357683062553406,0.188916876912117,0.16624684631824493,0.20151133835315704,0.2141057997941971,0.14105793833732605,0.13853904604911804,0.13853904604911804,0.4911838769912721,0.9823677539825442,0.9622166156768802,0.6020151376724243,0.5138539075851439,0.2921914458274841,0.20906801521778104,0.16624684631824493,0.13602015376091006,0.11335012316703795,0.08564231544733046,0.16120906174182892,0.11335012316703795,0.07808564603328705,0.15113350749015808,0.10327456146478654,0.0,0.15617129206657407,0.10075566917657852,0.07052896916866302,0.062972292304039,0.09319899231195447,0.10579345375299452,0.04282115772366525,0.0,0.0,0.0,0.0,0.0,0.0,0.0,0.0,0.0,0.0,0.0,0.0,0.0,0.0,0.0,0.0,0.0,0.0,0.0,0.0,0.0,0.0,0.0,0.0,0.0,0.0,0.0,0.0,0.0,0.0,0.0,0.0,0.0,0.0,0.0,0.0,0.0,0.0,0.0,0.0,0.0,0.0,0.0,0.0,0.0,0.0,0.0,0.0,0.0,0.0,0.0,0.0,0.0,0.0,0.0,0.0,0.0,0.0,0.0,0.0
0.9102563858032224,0.6837607026100159,0.6153846383094788,0.5982906222343444,0.5726495981216431,0.5726495981216431,0.5170940160751343,0.46153846383094804,0.3846153914928436,0.2606837749481201,0.15811966359615326,0.08547008782625197,0.03418803587555885,0.038461539894342416,0.025641025975346562,0.08547008782625197,0.1923076957464218,0.3247863352298737,0.4017094075679779,0.4743589758872986,0.5085470080375671,0.5384615659713745,0.5555555820465089,0.5256410241127014,0.4957264959812164,0.5,0.512820541858673,0.5299145579338074,0.5427350401878356,0.5512820482254028,0.5555555820465089,0.5641025900840759,0.568376064300537,0.5854700803756713,0.5811966061592102,0.5940170884132385,0.5982906222343444,0.6025640964508056,0.6111111044883727,0.6239316463470459,0.6282051205635071,0.6452991366386414,0.6410256624221801,0.6538461446762085,0.6538461446762085,0.6623931527137756,0.6752136945724488,0.6837607026100159,0.688034176826477,0.67948716878891,0.6623931527137756,0.6666666865348815,0.6452991366386414,0.6153846383094788,0.6025640964508056,0.5940170884132385,0.568376064300537,0.5512820482254028,0.5341880321502686,0.5213675498962401,0.512820541858673,0.5085470080375671,0.4957264959812164,0.4914529919624329,0.4829059839248657,0.4871794879436493,0.4700854718685151,0.4658119678497313,0.4658119678497313,0.4658119678497313,0.4444444477558137,0.4487179517745972,0.4529914557933807,0.4572649598121644,0.4444444477558137,0.44017094373703003,0.44017094373703003,0.4444444477558137,0.4358974397182465,0.4358974397182465,0.4316239356994629,0.4316239356994629,0.4273504316806793,0.4444444477558137,0.4358974397182465,0.4358974397182465,0.4358974397182465,0.44017094373703003,0.4316239356994629,0.4316239356994629,0.4444444477558137,0.44017094373703003,0.4358974397182465,0.4487179517745972,0.4487179517745972,0.4529914557933807,0.4829059839248657,0.931623935699463,1.0,0.6623931527137756,0.6239316463470459,0.5940170884132385,0.55982905626297,0.5470085740089417,0.4914529919624329,0.4358974397182465,0.35470086336135864,0.1923076957464218,0.11111111193895344,0.04273504391312599,0.004273504484444857,0.017094017937779427,0.0,0.05982905998826026,0.15811966359615326,0.27777779102325445,0.3589743673801422,0.4017094075679779,0.0,0.0,0.0,0.0,0.0,0.0,0.0,0.0,0.0,0.0,0.0,0.0,0.0,0.0,0.0,0.0,0.0,0.0,0.0,0.0,0.0,0.0,0.0,0.0,0.0,0.0,0.0,0.0,0.0,0.0,0.0,0.0,0.0,0.0,0.0,0.0,0.0,0.0,0.0,0.0,0.0,0.0,0.0,0.0,0.0,0.0,0.0,0.0,0.0,0.0,0.0,0.0,0.0,0.0,0.0,0.0,0.0,0.0,0.0,0.0,0.0,0.0,0.0,0.0,0.0,0.0,0.0,0.0,0.0,4.0
1.0,0.8568421006202698,0.5894736647605896,0.3557894825935364,0.24842105805873874,0.18315789103508,0.10526315867900847,0.10105263441801073,0.12421052902936935,0.14947368204593658,0.11999999731779094,0.09894736856222153,0.052631579339504235,0.0589473694562912,0.07578947395086286,0.09473684430122377,0.10105263441801073,0.08210526406764984,0.08210526406764984,0.07157894968986511,0.10105263441801073,0.052631579339504235,0.0,0.0589473694562912,0.046315789222717285,0.0147368423640728,0.02105263248085976,0.02315789461135864,0.06947368383407594,0.0884210541844368,0.08421052992343903,0.13894736766815186,0.20842105150222776,0.19789473712444305,0.16631579399108887,0.21894736588001248,0.2126315832138061,0.20000000298023224,0.16631579399108887,0.18315789103508,0.23789474368095395,0.1747368425130844,0.16631579399108887,0.17894737422466278,0.2042105197906494,0.2442105263471604,0.20631578564643852,0.2126315832138061,0.2610526382923127,0.20000000298023224,0.25894737243652344,0.3073684275150299,0.239999994635582,0.3031578958034516,0.31368422508239746,0.32842105627059937,0.3642105162143707,0.2821052670478821,0.24842105805873874,0.22947368025779724,0.2252631634473801,0.21894736588001248,0.2126315832138061,0.20631578564643852,0.22105263173580167,0.2168421000242233,0.2778947353363037,0.4315789341926575,0.5810526609420776,0.8294736742973327,0.9789473414421078,0.8778947591781617,0.6294736862182616,0.4168421030044556,0.3263157904148102,0.2442105263471604,0.16421052813529968,0.15157894790172574,0.12842105329036713,0.15157894790172574,0.16421052813529968,0.1599999964237213,0.17052631080150604,0.0,0.0,0.0,0.0,0.0,0.0,0.0,0.0,0.0,0.0,0.0,0.0,0.0,0.0,0.0,0.0,0.0,0.0,0.0,0.0,0.0,0.0,0.0,0.0,0.0,0.0,0.0,0.0,0.0,0.0,0.0,0.0,0.0,0.0,0.0,0.0,0.0,0.0,0.0,0.0,0.0,0.0,0.0,0.0,0.0,0.0,0.0,0.0,0.0,0.0,0.0,0.0,0.0,0.0,0.0,0.0,0.0,0.0,0.0,0.0,0.0,0.0,0.0,0.0,0.0,0.0,0.0,0.0,0.0,0.0,0.0,0.0,0.0,0.0,0.0,0.0,0.0,0.0,0.0,0.0,0.0,0.0,0.0,0.0,0.0,0.0,0.0,0.0,0.0,0.0,0.0,0.0,0.0,0.0,0.0,0.0,0.0,0.0,0.0,0.0,0.0,0.0,0.0,0.0,0.0
0.957198441028595,0.7042801380157471,0.505836546421051,0.21011672914028168,0.05058365687727928,0.007782101165503263,0.07392995804548262,0.143968865275383,0.15564201772212982,0.143968865275383,0.16342411935329434,0.16342411935329434,0.1712062209844589,0.1712062209844589,0.186770424246788,0.1789883226156235,0.19844357669353485,0.2062256783246994,0.22957198321819297,0.2334630340337753,0.2529182732105255,0.2607003748416901,0.2918287813663482,0.31128403544425964,0.35019454360008245,0.36575874686241133,0.3968871533870697,0.4085603058338165,0.4357976615428925,0.4630350172519684,0.505836546421051,0.5136186480522156,0.5175096988677979,0.4863813221454621,0.4396887123584747,0.39299610257148737,0.3540855944156647,0.3190661370754241,0.3073929846286774,0.27237352728843683,0.2762645781040192,0.2490272372961045,0.2684824764728546,0.2529182732105255,0.2645914256572724,0.2645914256572724,0.2762645781040192,0.2684824764728546,0.28015562891960144,0.27237352728843683,0.2840466797351837,0.2607003748416901,0.28015562891960144,0.2645914256572724,0.27237352728843683,0.2645914256572724,0.2645914256572724,0.2607003748416901,0.2607003748416901,0.2568093240261078,0.2490272372961045,0.2490272372961045,0.2529182732105255,0.2373540848493577,0.2568093240261078,0.24513618648052216,0.24513618648052216,0.2334630340337753,0.24513618648052216,0.22178988158702848,0.2529182732105255,0.2568093240261078,0.2840466797351837,0.28015562891960144,0.3035019338130951,0.3035019338130951,0.3035019338130951,0.2840466797351837,0.287937730550766,0.2568093240261078,0.2568093240261078,0.2334630340337753,0.24124513566493985,0.214007779955864,0.21011672914028168,0.2062256783246994,0.21011672914028168,0.19844357669353485,0.20233462750911715,0.186770424246788,0.2062256783246994,0.19455252587795255,0.2062256783246994,0.19455252587795255,0.2062256783246994,0.20233462750911715,0.2062256783246994,0.19844357669353485,0.21789883077144626,0.2373540848493577,0.3151750862598419,0.45914396643638594,0.5719844102859498,0.4513618648052216,0.4552529156208038,0.7431906461715698,1.0,0.9338521361351012,0.6926069855690002,0.42023345828056335,0.143968865275383,0.0,0.03501945361495019,0.1128404662013054,0.16342411935329434,0.14785991609096527,0.1712062209844589,0.16342411935329434,0.17509727180004125,0.17509727180004125,0.1789883226156235,0.18287937343120567,0.19844357669353485,0.19844357669353485,0.2256809324026108,0.2256809324026108,0.2529182732105255,0.2568093240261078,0.0,0.0,0.0,0.0,0.0,0.0,0.0,0.0,0.0,0.0,0.0,0.0,0.0,0.0,0.0,0.0,0.0,0.0,0.0,0.0,0.0,0.0,0.0,0.0,0.0,0.0,0.0,0.0,0.0,0.0,0.0,0.0,0.0,0.0,0.0,0.0,0.0,0.0,0.0,0.0,0.0,0.0,0.0,0.0,0.0,0.0,0.0,0.0,0.0,0.0,0.0,0.0,0.0,0.0,0.0,0.0,0.0,0.0,0.0,0.0
1.0,0.8858800530433654,0.17601546645164487,0.0,0.23984526097774497,0.24371373653411865,0.2340425550937652,0.2340425550937652,0.2301740795373917,0.22823984920978546,0.22823984920978546,0.22437137365341184,0.2340425550937652,0.24371373653411865,0.2475822120904922,0.24564796686172485,0.26112186908721924,0.27079305052757263,0.27079305052757263,0.26885879039764404,0.28046420216560364,0.28820115327835083,0.2940038740634919,0.295938104391098,0.3056092858314514,0.3133462369441986,0.3114120066165924,0.3056092858314514,0.3114120066165924,0.323017418384552,0.3210831582546234,0.323017418384552,0.3442940115928649,0.365570604801178,0.3713732957839965,0.3617021143436432,0.3481624722480774,0.34622824192047114,0.323017418384552,0.3056092858314514,0.3036750555038452,0.301740825176239,0.2920696437358856,0.28626692295074463,0.2843326926231384,0.28820115327835083,0.2940038740634919,0.29013538360595703,0.2940038740634919,0.3036750555038452,0.2978723347187042,0.2940038740634919,0.3094777464866638,0.3133462369441986,0.3114120066165924,0.3036750555038452,0.3056092858314514,0.3114120066165924,0.3056092858314514,0.295938104391098,0.295938104391098,0.2978723347187042,0.2920696437358856,0.2843326926231384,0.29013538360595703,0.29013538360595703,0.2843326926231384,0.27079305052757263,0.274661511182785,0.2823984622955322,0.27852997183799744,0.2630560994148254,0.274661511182785,0.28046420216560364,0.27079305052757263,0.2630560994148254,0.2669245600700378,0.274661511182785,0.26885879039764404,0.26499032974243164,0.26112186908721924,0.27852997183799744,0.27079305052757263,0.27079305052757263,0.2843326926231384,0.29013538360595703,0.2978723347187042,0.3036750555038452,0.323017418384552,0.317214697599411,0.2998065650463104,0.2920696437358856,0.2920696437358856,0.28046420216560364,0.2669245600700378,0.26885879039764404,0.27852997183799744,0.29013538360595703,0.3481624722480774,0.5860735177993774,0.9864603281021118,0.9071566462516784,0.1876208931207657,0.013539651408791542,0.24371373653411865,0.24564796686172485,0.2340425550937652,0.23597678542137146,0.2379110306501388,0.2379110306501388,0.2340425550937652,0.23597678542137146,0.24951644241809845,0.25338491797447205,0.24951644241809845,0.25531914830207825,0.26499032974243164,0.26885879039764404,0.26499032974243164,0.26885879039764404,0.0,0.0,0.0,0.0,0.0,0.0,0.0,0.0,0.0,0.0,0.0,0.0,0.0,0.0,0.0,0.0,0.0,0.0,0.0,0.0,0.0,0.0,0.0,0.0,0.0,0.0,0.0,0.0,0.0,0.0,0.0,0.0,0.0,0.0,0.0,0.0,0.0,0.0,0.0,0.0,0.0,0.0,0.0,0.0,0.0,0.0,0.0,0.0,0.0,0.0,0.0,0.0,0.0,0.0,0.0,0.0,0.0,0.0,0.0,0.0,0.0,0.0,0.0,0.0,0.0,0.0,0.0,0.0
1.0,0.8511235713958739,0.18820224702358246,0.0,0.09550561755895616,0.1994381994009017,0.2162921279668808,0.2584269642829895,0.2584269642829895,0.26966291666030884,0.25,0.25,0.2640449404716492,0.32022473216056824,0.2808988690376282,0.2808988690376282,0.2921348214149475,0.2752808928489685,0.32022473216056824,0.3595505654811859,0.3764044940471649,0.4016853868961334,0.4185393154621124,0.4241572916507721,0.42977526783943176,0.4691011309623718,0.4662921428680419,0.4887640476226807,0.4606741666793823,0.41573032736778254,0.3904494345188141,0.4016853868961334,0.3764044940471649,0.3117977380752564,0.2977527976036072,0.2921348214149475,0.3089887499809265,0.3286516964435577,0.3426966369152069,0.3061797618865966,0.3314606845378876,0.3595505654811859,0.3061797618865966,0.3539325892925262,0.3314606845378876,0.3258427083492279,0.3230337202548981,0.3342696726322174,0.3483146131038666,0.3483146131038666,0.3904494345188141,0.3792134821414948,0.41573032736778254,0.3707865178585053,0.0,0.0,0.0,0.0,0.0,0.0,0.0,0.0,0.0,0.0,0.0,0.0,0.0,0.0,0.0,0.0,0.0,0.0,0.0,0.0,0.0,0.0,0.0,0.0,0.0,0.0,0.0,0.0,0.0,0.0,0.0,0.0,0.0,0.0,0.0,0.0,0.0,0.0,0.0,0.0,0.0,0.0,0.0,0.0,0.0,0.0,0.0,0.0,0.0,0.0,0.0,0.0,0.0,0.0,0.0,0.0,0.0,0.0,0.0,0.0,0.0,0.0,0.0,0.0,0.0,0.0,0.0,0.0,0.0,0.0,0.0,0.0,0.0,0.0,0.0,0.0,0.0,0.0,0.0,0.0,0.0,0.0,0.0,0.0,0.0,0.0,0.0,0.0,0.0,0.0,0.0,0.0,0.0,0.0,0.0,0.0,0.0,0.0,0.0,0.0,0.0,0.0,0.0,0.0,0.0,0.0,0.0,0.0,0.0,0.0,0.0,0.0,0.0,0.0,0.0,0.0,0.0,0.0,0.0,0.0,0.0,0.0,0.0,0.0,0.0,0.0,0.0,0.0,0.0,0.0,0.0,0.0,0.0,0.0
0.8687782883644104,0.8393664956092833,0.6244344115257263,0.3868778347969056,0.1787330359220505,0.1447963863611221,0.1108597293496132,0.1085972860455513,0.07692307978868483,0.07918552309274672,0.06334841996431351,0.0656108632683754,0.05882352963089942,0.07466063648462297,0.05882352963089942,0.07239819318056105,0.06108597293496131,0.07239819318056105,0.049773756414651885,0.06108597293496131,0.06108597293496131,0.0859728530049324,0.09276018291711807,0.13800905644893646,0.14705882966518402,0.1923076957464218,0.2149321287870407,0.23981900513172144,0.253393679857254,0.2511312365531921,0.2443438917398453,0.24660633504390714,0.2171945720911026,0.22850678861141205,0.20135746896266934,0.20588235557079315,0.19004525244235992,0.1990950256586075,0.18778280913829806,0.20814479887485504,0.19004525244235992,0.21040724217891693,0.1990950256586075,0.2171945720911026,0.20814479887485504,0.2217194586992264,0.20588235557079315,0.21945701539516446,0.1968325823545456,0.20814479887485504,0.1968325823545456,0.20361991226673126,0.1651583760976791,0.1696832627058029,0.1719457060098648,0.1764705926179886,0.16742081940174106,0.1764705926179886,0.15610860288143155,0.16742081940174106,0.1651583760976791,0.1787330359220505,0.15384615957736966,0.16289593279361725,0.14705882966518402,0.14705882966518402,0.1289592832326889,0.14932127296924594,0.13574661314487454,0.14932127296924594,0.1289592832326889,0.1515837162733078,0.14932127296924594,0.15610860288143155,0.1515837162733078,0.16063348948955536,0.14932127296924594,0.14705882966518402,0.13574661314487454,0.1515837162733078,0.1312217265367508,0.1244343891739845,0.1131221726536751,0.1289592832326889,0.1085972860455513,0.11764705926179887,0.10407239943742752,0.126696839928627,0.11990950256586072,0.1447963863611221,0.13800905644893646,0.14705882966518402,0.14027149975299838,0.15837104618549347,0.14705882966518402,0.1651583760976791,0.14705882966518402,0.15837104618549347,0.1447963863611221,0.1515837162733078,0.14932127296924594,0.15384615957736966,0.14027149975299838,0.16063348948955536,0.14705882966518402,0.1719457060098648,0.1651583760976791,0.1764705926179886,0.1696832627058029,0.1809954792261124,0.1742081493139267,0.1968325823545456,0.18552036583423606,0.1968325823545456,0.1968325823545456,0.2624434530735016,0.3438914120197296,0.5113122463226318,0.6493212580680847,0.8325791954994202,0.9683257937431334,1.0,0.9276018142700196,0.7104072570800781,0.4479638040065765,0.2262443453073501,0.11764705926179887,0.1085972860455513,0.05656108632683754,0.04751131311058998,0.015837104991078373,0.02036199159920216,0.009049774147570131,0.011312217451632023,0.0,0.0,0.0,0.0,0.0,0.0,0.0,0.0,0.0,0.0,0.0,0.0,0.0,0.0,0.0,0.0,0.0,0.0,0.0,0.0,0.0,0.0,0.0,0.0,0.0,0.0,0.0,0.0,0.0,0.0,0.0,0.0,0.0,0.0,0.0,0.0,0.0,0.0,0.0,0.0,0.0,0.0,0.0,0.0,0.0,0.0,0.0,0.0,0.0,0.0,0.0,0.0,0.0,0.0
0.5318351984024047,0.4382022619247437,0.2846441864967346,0.12359550595283507,0.0,0.007490636780858037,0.0749063640832901,0.1161048710346222,0.1516853868961334,0.1910112351179123,0.21535579860210416,0.2303370833396912,0.2434456944465637,0.2415730357170105,0.2340824007987977,0.2340824007987977,0.23782771825790405,0.2397003769874573,0.2359550595283508,0.2322097420692444,0.2397003769874573,0.2453183531761169,0.2434456944465637,0.2359550595283508,0.25280898809432983,0.2602996230125427,0.2715355753898621,0.29400748014450073,0.318352073431015,0.3464419543743133,0.368913859128952,0.393258422613144,0.41573032736778254,0.4438202381134033,0.4513108730316161,0.4513108730316161,0.4531835317611694,0.4550561904907226,0.4344569146633148,0.4194756448268889,0.4138576686382294,0.3970037400722504,0.3782771527767181,0.3576779067516327,0.3501872718334198,0.3389513194561005,0.3239700496196747,0.318352073431015,0.3127340972423553,0.3164794147014617,0.3071160912513733,0.3014981150627136,0.3071160912513733,0.3071160912513733,0.3052434325218201,0.3033707737922668,0.3089887499809265,0.3089887499809265,0.3052434325218201,0.295880138874054,0.295880138874054,0.3089887499809265,0.2977527976036072,0.295880138874054,0.3014981150627136,0.3014981150627136,0.295880138874054,0.2996254563331604,0.3014981150627136,0.3033707737922668,0.2996254563331604,0.29400748014450073,0.3071160912513733,0.3033707737922668,0.2977527976036072,0.2921348214149475,0.2977527976036072,0.3033707737922668,0.3052434325218201,0.2996254563331604,0.3014981150627136,0.3089887499809265,0.3052434325218201,0.2996254563331604,0.3052434325218201,0.3071160912513733,0.3071160912513733,0.3089887499809265,0.318352073431015,0.32022473216056824,0.32022473216056824,0.3258427083492279,0.3426966369152069,0.3576779067516327,0.3595505654811859,0.3576779067516327,0.3464419543743133,0.33707866072654724,0.32022473216056824,0.3052434325218201,0.2902621626853943,0.2902621626853943,0.2902621626853943,0.288389503955841,0.295880138874054,0.3089887499809265,0.32209739089012146,0.35205993056297297,0.4419475793838501,0.574906349182129,0.754681646823883,0.8838951587677004,1.0,0.9962546825408936,0.6479400992393494,0.3071160912513733,0.2116104811429977,0.2247191071510315,0.22846442461013794,0.2397003769874573,0.2471910119056701,0.2415730357170105,0.2359550595283508,0.22846442461013794,0.0,0.0,0.0,0.0,0.0,0.0,0.0,0.0,0.0,0.0,0.0,0.0,0.0,0.0,0.0,0.0,0.0,0.0,0.0,0.0,0.0,0.0,0.0,0.0,0.0,0.0,0.0,0.0,0.0,0.0,0.0,0.0,0.0,0.0,0.0,0.0,0.0,0.0,0.0,0.0,0.0,0.0,0.0,0.0,0.0,0.0,0.0,0.0,0.0,0.0,0.0,0.0,0.0,0.0,0.0,0.0,0.0,0.0,0.0,0.0,0.0,0.0,0.0,2.0
1.0,0.9746376872062686,0.3695652186870576,0.04347826167941093,0.08333333581686017,0.1739130467176437,0.17028985917568204,0.1739130467176437,0.2572463750839233,0.2536231875419617,0.2355072498321533,0.24275362491607666,0.28623187541961664,0.3369565308094025,0.3550724685192108,0.3586956560611725,0.35144928097724915,0.3586956560611725,0.3659420311450958,0.35144928097724915,0.3442029058933258,0.3659420311450958,0.3695652186870576,0.36231884360313416,0.3731884062290192,0.3876811563968658,0.3659420311450958,0.3876811563968658,0.4130434691905975,0.445652186870575,0.4601449370384216,0.4746376872062683,0.5072463750839233,0.532608687877655,0.5471014380455016,0.5507246255874634,0.5724637508392333,0.5797101259231567,0.5652173757553101,0.5398550629615784,0.5144927501678467,0.4927536249160767,0.4492753744125367,0.3876811563968658,0.3731884062290192,0.3659420311450958,0.3369565308094025,0.3188405930995941,0.3079710006713868,0.3297101557254791,0.3188405930995941,0.304347813129425,0.31521740555763245,0.304347813129425,0.2971014380455017,0.3079710006713868,0.3115941882133484,0.3007246255874633,0.2898550629615784,0.28260868787765503,0.2898550629615784,0.3115941882133484,0.32608696818351746,0.3115941882133484,0.3405797183513641,0.35144928097724915,0.3297101557254791,0.3115941882133484,0.3224637806415558,0.3224637806415558,0.31521740555763245,0.3115941882133484,0.32608696818351746,0.31521740555763245,0.2971014380455017,0.28623187541961664,0.3079710006713868,0.31521740555763245,0.3079710006713868,0.3007246255874633,0.3188405930995941,0.31521740555763245,0.3079710006713868,0.3115941882133484,0.3297101557254791,0.3297101557254791,0.3550724685192108,0.42753621935844416,0.6739130616188049,0.9384058117866514,0.6304348111152649,0.05434782430529593,0.0,0.12318840622901918,0.13405796885490415,0.1304347813129425,0.2028985470533371,0.1884057968854904,0.16304348409175873,0.1847826093435288,0.22826087474823,0.2789855003356933,0.3007246255874633,0.28260868787765503,0.2971014380455017,0.304347813129425,0.3007246255874633,0.0,0.0,0.0,0.0,0.0,0.0,0.0,0.0,0.0,0.0,0.0,0.0,0.0,0.0,0.0,0.0,0.0,0.0,0.0,0.0,0.0,0.0,0.0,0.0,0.0,0.0,0.0,0.0,0.0,0.0,0.0,0.0,0.0,0.0,0.0,0.0,0.0,0.0,0.0,0.0,0.0,0.0,0.0,0.0,0.0,0.0,0.0,0.0,0.0,0.0,0.0,0.0,0.0,0.0,0.0,0.0,0.0,0.0,0.0,0.0,0.0,0.0,0.0,0.0,0.0,0.0,0.0,0.0,0.0,0.0,0.0,0.0,0.0,0.0,0.0,0.0,0.0,0.0,0.0,0.0,1.0
0.9833333492279052,0.9366666674613952,0.5233333110809325,0.0,0.1133333370089531,0.239999994635582,0.34333333373069763,0.34333333373069763,0.3633333444595337,0.38333332538604736,0.40333333611488337,0.40333333611488337,0.4199999868869781,0.4466666579246521,0.4600000083446503,0.4833333194255829,0.550000011920929,0.5333333611488342,0.5666666626930236,0.5666666626930236,0.5799999833106994,0.5566666722297671,0.5733333230018616,0.550000011920929,0.5633333325386047,0.5133333206176758,0.5066666603088378,0.4699999988079071,0.4699999988079071,0.4466666579246521,0.4300000071525574,0.4000000059604645,0.38333332538604736,0.38333332538604736,0.3899999856948853,0.36666667461395264,0.3933333456516265,0.3966666758060455,0.3933333456516265,0.3866666555404663,0.4366666674613953,0.4466666579246521,0.4633333384990691,0.4300000071525574,0.4133333265781402,0.40333333611488337,0.4266666769981384,0.3700000047683716,0.3966666758060455,0.3799999952316284,0.3866666555404663,0.3633333444595337,0.3933333456516265,0.36000001430511475,0.38333332538604736,0.34333333373069763,0.3700000047683716,0.3566666543483734,0.3633333444595337,0.30666667222976685,0.4399999976158143,0.7066666483879089,1.0,0.9033333063125608,0.5566666722297671,0.036666665226221085,0.08333333581686017,0.20000000298023224,0.32333332300186163,0.3266666531562805,0.3700000047683716,0.3799999952316284,0.40333333611488337,0.3766666650772095,0.4300000071525574,0.0,0.0,0.0,0.0,0.0,0.0,0.0,0.0,0.0,0.0,0.0,0.0,0.0,0.0,0.0,0.0,0.0,0.0,0.0,0.0,0.0,0.0,0.0,0.0,0.0,0.0,0.0,0.0,0.0,0.0,0.0,0.0,0.0,0.0,0.0,0.0,0.0,0.0,0.0,0.0,0.0,0.0,0.0,0.0,0.0,0.0,0.0,0.0,0.0,0.0,0.0,0.0,0.0,0.0,0.0,0.0,0.0,0.0,0.0,0.0,0.0,0.0,0.0,0.0,0.0,0.0,0.0,0.0,0.0,0.0,0.0,0.0,0.0,0.0,0.0,0.0,0.0,0.0,0.0,0.0,0.0,0.0,0.0,0.0,0.0,0.0,0.0,0.0,0.0,0.0,0.0,0.0,0.0,0.0,0.0,0.0,0.0,0.0,0.0,0.0,0.0,0.0,0.0,0.0,0.0,0.0,0.0,0.0,0.0,0.0,0.0,0.0,0.0
1.0,0.8919860720634459,0.44599303603172297,0.0,0.1649245023727417,0.22183507680892944,0.1451800167560577,0.13704994320869446,0.14982578158378598,0.1533101052045822,0.15098722279071808,0.15795587003231049,0.16027875244617462,0.17305459082126615,0.1718931496143341,0.1718931496143341,0.1800232231616974,0.19163763523101807,0.1939605176448822,0.21138212084770205,0.22880372405052185,0.2450638860464097,0.25435540080070496,0.2717770040035248,0.2926829159259796,0.31939604878425604,0.3263646960258484,0.3321718871593476,0.3368176519870758,0.337979108095169,0.32055750489234924,0.2891986072063446,0.2578397095203401,0.22531940042972565,0.19628338515758514,0.17421603202819824,0.16376306116580966,0.15795587003231049,0.1451800167560577,0.13821138441562653,0.1358885020017624,0.1463414579629898,0.14401859045028687,0.1324041783809662,0.14053426682949066,0.14982578158378598,0.1428571492433548,0.1428571492433548,0.1393728256225586,0.15214866399765015,0.1463414579629898,0.1347270607948303,0.1358885020017624,0.14169570803642273,0.13124273717403412,0.13008129596710205,0.1324041783809662,0.13356561958789825,0.12543554604053495,0.12195122241973876,0.11962834000587465,0.12311265617609025,0.12659698724746704,0.11846689879894255,0.12195122241973876,0.1428571492433548,0.1428571492433548,0.14053426682949066,0.13821138441562653,0.15214866399765015,0.1567944288253784,0.1567944288253784,0.15795587003231049,0.1451800167560577,0.1428571492433548,0.12659698724746704,0.11382114142179488,0.105691060423851,0.10336817800998688,0.09756097197532654,0.10104529559612274,0.105691060423851,0.10801393538713457,0.12775841355323792,0.2369337975978851,0.4970963895320892,0.8211382031440736,0.9372822046279908,0.5574913024902344,0.11149825900793076,0.04994192719459534,0.17305459082126615,0.13124273717403412,0.10801393538713457,0.11033681780099867,0.1091753765940666,0.11382114142179488,0.13008129596710205,0.12659698724746704,0.12543554604053495,0.1358885020017624,0.1475028991699219,0.15795587003231049,0.15563298761844638,0.0,0.0,0.0,0.0,0.0,0.0,0.0,0.0,0.0,0.0,0.0,0.0,0.0,0.0,0.0,0.0,0.0,0.0,0.0,0.0,0.0,0.0,0.0,0.0,0.0,0.0,0.0,0.0,0.0,0.0,0.0,0.0,0.0,0.0,0.0,0.0,0.0,0.0,0.0,0.0,0.0,0.0,0.0,0.0,0.0,0.0,0.0,0.0,0.0,0.0,0.0,0.0,0.0,0.0,0.0,0.0,0.0,0.0,0.0,0.0,0.0,0.0,0.0,0.0,0.0,0.0,0.0,0.0,0.0,0.0,0.0,0.0,0.0,0.0,0.0,0.0,0.0,0.0,0.0,0.0,0.0,0.0,0.0,0.0
1.0,0.6849315166473389,0.0904109552502632,0.0,0.04931506887078285,0.03287671133875847,0.0356164388358593,0.024657534435391426,0.05205479636788368,0.03287671133875847,0.0547945201396942,0.04383561760187149,0.0712328776717186,0.06027397140860559,0.08767123520374298,0.07671232521533966,0.08493150770664215,0.0904109552502632,0.11506849527359007,0.0986301377415657,0.1178082227706909,0.1095890402793884,0.1342465728521347,0.1369863003492355,0.1616438329219818,0.15616437792778015,0.1698630154132843,0.1671232879161835,0.18356163799762726,0.17808219790458682,0.18356163799762726,0.1643835604190826,0.1698630154132843,0.1260273903608322,0.11506849527359007,0.0821917802095413,0.0630136951804161,0.03835616260766983,0.04109589010477065,0.01369863003492355,0.019178081303834915,0.01369863003492355,0.024657534435391426,0.008219177834689617,0.021917808800935745,0.016438355669379234,0.03287671133875847,0.019178081303834915,0.04657534137368202,0.03835616260766983,0.05205479636788368,0.04657534137368202,0.06027397140860559,0.04109589010477065,0.06027397140860559,0.05205479636788368,0.04931506887078285,0.03835616260766983,0.06027397140860559,0.03835616260766983,0.06575342267751694,0.04657534137368202,0.06575342267751694,0.06027397140860559,0.1095890402793884,0.12054794281721118,0.14520548284053802,0.1643835604190826,0.21917808055877686,0.20273973047733304,0.20273973047733304,0.1643835604190826,0.1095890402793884,0.07397260516881943,0.08493150770664215,0.04383561760187149,0.04931506887078285,0.04109589010477065,0.06027397140860559,0.04383561760187149,0.0712328776717186,0.06575342267751694,0.0904109552502632,0.1863013654947281,0.5534246563911437,0.9808219075202942,0.9616438150405886,0.2602739632129669,0.0630136951804161,0.0794520527124405,0.12054794281721118,0.0904109552502632,0.0986301377415657,0.0986301377415657,0.11232876777648924,0.10136986523866652,0.12876711785793302,0.12328767031431198,0.1342465728521347,0.14520548284053802,0.1616438329219818,0.15068493783473969,0.17808219790458682,0.0,0.0,0.0,0.0,0.0,0.0,0.0,0.0,0.0,0.0,0.0,0.0,0.0,0.0,0.0,0.0,0.0,0.0,0.0,0.0,0.0,0.0,0.0,0.0,0.0,0.0,0.0,0.0,0.0,0.0,0.0,0.0,0.0,0.0,0.0,0.0,0.0,0.0,0.0,0.0,0.0,0.0,0.0,0.0,0.0,0.0,0.0,0.0,0.0,0.0,0.0,0.0,0.0,0.0,0.0,0.0,0.0,0.0,0.0,0.0,0.0,0.0,0.0,0.0,0.0,0.0,0.0,0.0,0.0,0.0,0.0,0.0,0.0,0.0,0.0,0.0,0.0,0.0,0.0,0.0,0.0,0.0,0.0,0.0,0.0
0.9847561120986938,0.7896341681480407,0.3414634168148041,0.0,0.14024390280246735,0.2987805008888245,0.3506097495555878,0.3841463327407837,0.3841463327407837,0.4085365831851959,0.3902438879013062,0.4054878056049345,0.4268292784690857,0.4542683064937592,0.4603658616542816,0.4878048896789551,0.5182926654815674,0.5640243887901306,0.5548780560493469,0.5853658318519592,0.6310975551605225,0.625,0.6402438879013062,0.6310975551605225,0.6036585569381714,0.5975610017776489,0.5640243887901306,0.5548780560493469,0.5,0.4603658616542816,0.4237805008888245,0.4024390280246736,0.3841463327407837,0.3810975551605225,0.3628048896789551,0.3780487775802612,0.3689024448394775,0.3658536672592163,0.3628048896789551,0.3628048896789551,0.3719512224197388,0.3932926952838898,0.3810975551605225,0.3902438879013062,0.4085365831851959,0.4146341383457184,0.4024390280246736,0.3993902504444122,0.3353658616542816,0.3475609719753265,0.3536585271358489,0.3353658616542816,0.3414634168148041,0.3506097495555878,0.32621949911117554,0.3506097495555878,0.3292683064937592,0.3658536672592163,0.3597561120986938,0.3170731663703918,0.3353658616542816,0.3689024448394775,0.3414634168148041,0.3445121943950653,0.33841463923454285,0.5030487775802612,0.7408536672592164,1.0,0.9512194991111758,0.6341463327407836,0.0945121943950653,0.01829268224537373,0.1798780560493469,0.2926829159259796,0.3536585271358489,0.3719512224197388,0.3414634168148041,0.3689024448394775,0.3810975551605225,0.3810975551605225,0.4085365831851959,0.0,0.0,0.0,0.0,0.0,0.0,0.0,0.0,0.0,0.0,0.0,0.0,0.0,0.0,0.0,0.0,0.0,0.0,0.0,0.0,0.0,0.0,0.0,0.0,0.0,0.0,0.0,0.0,0.0,0.0,0.0,0.0,0.0,0.0,0.0,0.0,0.0,0.0,0.0,0.0,0.0,0.0,0.0,0.0,0.0,0.0,0.0,0.0,0.0,0.0,0.0,0.0,0.0,0.0,0.0,0.0,0.0,0.0,0.0,0.0,0.0,0.0,0.0,0.0,0.0,0.0,0.0,0.0,0.0,0.0,0.0,0.0,0.0,0.0,0.0,0.0,0.0,0.0,0.0,0.0,0.0,0.0,0.0,0.0,0.0,0.0,0.0,0.0,0.0,0.0,0.0,0.0,0.0,0.0,0.0,0.0,0.0,0.0,0.0,0.0,0.0,0.0,0.0,0.0,0.0,0.0,0.0
0.9681159257888792,0.8028985261917114,0.24927535653114324,0.0,0.0724637657403946,0.11304347962141036,0.08985507488250732,0.08115942031145094,0.06376811861991882,0.0782608687877655,0.06376811861991882,0.052173912525177,0.055072464048862464,0.06956521421670912,0.04057971015572547,0.055072464048862464,0.06086956337094306,0.06956521421670912,0.07536231726408002,0.08985507488250732,0.08405797183513641,0.0927536264061928,0.08115942031145094,0.11884058266878128,0.09855072200298308,0.1217391267418861,0.12463767826557162,0.14492753148078918,0.15072463452816007,0.1739130467176437,0.156521737575531,0.1768115907907486,0.16811594367027285,0.19420289993286127,0.1855072528123856,0.19130434095859528,0.16231884062290192,0.15072463452816007,0.12753623723983765,0.1362318843603134,0.10724637657403943,0.10724637657403943,0.10144927352666856,0.09855072200298308,0.0927536264061928,0.11014492809772493,0.08405797183513641,0.10724637657403943,0.11884058266878128,0.11594203114509585,0.11594203114509585,0.11594203114509585,0.0927536264061928,0.11594203114509585,0.104347825050354,0.10144927352666856,0.104347825050354,0.11884058266878128,0.09565217047929764,0.11014492809772493,0.10724637657403943,0.11594203114509585,0.11014492809772493,0.11304347962141036,0.09855072200298308,0.11304347962141036,0.09855072200298308,0.10724637657403943,0.0927536264061928,0.11304347962141036,0.09565217047929764,0.09565217047929764,0.08115942031145094,0.0927536264061928,0.09565217047929764,0.11014492809772493,0.08985507488250732,0.10144927352666856,0.09565217047929764,0.104347825050354,0.09855072200298308,0.10724637657403943,0.10144927352666856,0.10144927352666856,0.11304347962141036,0.11304347962141036,0.10144927352666856,0.12463767826557162,0.11014492809772493,0.11884058266878128,0.1217391267418861,0.13333334028720856,0.11884058266878128,0.13333334028720856,0.19130434095859528,0.34202897548675537,0.5797101259231567,0.921739101409912,1.0,0.5884057879447937,0.07536231726408002,0.05797101557254791,0.08695652335882187,0.08985507488250732,0.0724637657403946,0.06666667014360428,0.06086956337094306,0.06376811861991882,0.0,0.0,0.0,0.0,0.0,0.0,0.0,0.0,0.0,0.0,0.0,0.0,0.0,0.0,0.0,0.0,0.0,0.0,0.0,0.0,0.0,0.0,0.0,0.0,0.0,0.0,0.0,0.0,0.0,0.0,0.0,0.0,0.0,0.0,0.0,0.0,0.0,0.0,0.0,0.0,0.0,0.0,0.0,0.0,0.0,0.0,0.0,0.0,0.0,0.0,0.0,0.0,0.0,0.0,0.0,0.0,0.0,0.0,0.0,0.0,0.0,0.0,0.0,0.0,0.0,0.0,0.0,0.0,0.0,0.0,0.0,0.0,0.0,0.0,0.0,0.0,0.0,0.0,0.0,0.0
0.0,0.11711711436510085,0.2387387454509735,0.3288288414478302,0.4099099040031433,0.4234234094619751,0.4279279410839081,0.450450450181961,0.450450450181961,0.4324324429035187,0.4369369447231293,0.4414414465427399,0.4414414465427399,0.4279279410839081,0.4144144058227539,0.5,0.4054054021835328,0.3828828930854797,0.4459459483623505,0.4009009003639221,0.4549549520015717,0.4189189076423645,0.4639639556407929,0.4459459483623505,0.450450450181961,0.4819819927215576,0.477477490901947,0.4639639556407929,0.472972959280014,0.5090090036392211,0.5,0.5180180072784424,0.5675675868988037,0.5630630850791931,0.5405405163764953,0.5945945978164673,0.5810810923576355,0.5855855941772461,0.5810810923576355,0.5900900959968567,0.5990990996360778,0.5945945978164673,0.5675675868988037,0.5990990996360778,0.5675675868988037,0.5630630850791931,0.5990990996360778,0.5495495200157166,0.5630630850791931,0.5990990996360778,0.5,0.5270270109176636,0.5,0.4954954981803895,0.522522509098053,0.472972959280014,0.5090090036392211,0.4819819927215576,0.5,0.4639639556407929,0.5135135054588317,0.4819819927215576,0.5,0.5135135054588317,0.4819819927215576,0.522522509098053,0.5450450181961061,0.5090090036392211,0.5270270109176636,0.5405405163764953,0.5315315127372742,0.4864864945411681,0.5675675868988037,0.522522509098053,0.5315315127372742,0.554054081439972,0.5585585832595825,0.5495495200157166,0.5990990996360778,0.5630630850791931,0.5675675868988037,0.6126126050949097,0.6171171069145202,0.6711711883544922,0.7387387156486508,0.7387387156486508,0.7522522807121277,0.7792792916297911,0.7477477192878723,0.6261261105537416,0.5630630850791931,0.5090090036392211,0.5585585832595825,0.5855855941772461,0.5090090036392211,0.4324324429035187,0.522522509098053,0.477477490901947,0.5270270109176636,0.522522509098053,0.5090090036392211,0.554054081439972,0.5360360145568848,0.4189189076423645,0.5,0.6126126050949097,0.8738738894462585,0.914414405822754,0.9594594836235046,0.9504504799842834,0.9954954981803892,1.0,0.6756756901741028,0.3603603541851044,0.054054055362939835,0.03153153136372566,0.22072072327137,0.2792792916297913,0.4414414465427399,0.4549549520015717,0.472972959280014,0.4279279410839081,0.4594594538211823,0.4099099040031433,0.522522509098053,0.4279279410839081,0.4549549520015717,0.4234234094619751,0.4549549520015717,0.4459459483623505,0.4414414465427399,0.4324324429035187,0.4684684574604033,0.4009009003639221,0.4414414465427399,0.4369369447231293,0.450450450181961,0.4414414465427399,0.4684684574604033,0.4144144058227539,0.477477490901947,0.0,0.0,0.0,0.0,0.0,0.0,0.0,0.0,0.0,0.0,0.0,0.0,0.0,0.0,0.0,0.0,0.0,0.0,0.0,0.0,0.0,0.0,0.0,0.0,0.0,0.0,0.0,0.0,0.0,0.0,0.0,0.0,0.0,0.0,0.0,0.0,0.0,0.0,0.0,0.0,0.0,0.0,0.0,0.0,0.0,0.0,0.0
0.9502924084663392,0.8830409646034241,0.5087719559669495,0.014619883149862288,0.11988303810358047,0.26608186960220337,0.3830409348011017,0.4035087823867798,0.42690059542655934,0.4356725215911865,0.4619883000850676,0.4649122953414917,0.4795321524143219,0.5058479309082031,0.5321637392044067,0.5555555820465089,0.5877193212509156,0.6140350699424744,0.6432748436927795,0.6666666865348815,0.6725146174430847,0.6783625483512878,0.6812865734100342,0.6754385828971863,0.6637426614761353,0.6198830604553224,0.5877193212509156,0.5497075915336609,0.511695921421051,0.4707602262496948,0.4532163739204407,0.4473684132099152,0.438596487045288,0.429824560880661,0.429824560880661,0.4122807085514069,0.4239766001701354,0.42690059542655934,0.42690059542655934,0.4327485263347626,0.4502924084663392,0.4590643346309661,0.4853801131248474,0.4912280738353729,0.4795321524143219,0.4649122953414917,0.4502924084663392,0.4502924084663392,0.4532163739204407,0.4152046740055084,0.4122807085514069,0.4093567132949829,0.4035087823867798,0.40058478713035583,0.4093567132949829,0.4064327478408813,0.4210526347160339,0.4064327478408813,0.4122807085514069,0.4122807085514069,0.4239766001701354,0.4122807085514069,0.40058478713035583,0.511695921421051,0.7836257219314574,1.0,0.7748538255691528,0.2485380172729492,0.0,0.18128654360771174,0.3362573087215424,0.4035087823867798,0.4181286692619324,0.429824560880661,0.4532163739204407,0.4707602262496948,0.4736842215061188,0.4912280738353729,0.0,0.0,0.0,0.0,0.0,0.0,0.0,0.0,0.0,0.0,0.0,0.0,0.0,0.0,0.0,0.0,0.0,0.0,0.0,0.0,0.0,0.0,0.0,0.0,0.0,0.0,0.0,0.0,0.0,0.0,0.0,0.0,0.0,0.0,0.0,0.0,0.0,0.0,0.0,0.0,0.0,0.0,0.0,0.0,0.0,0.0,0.0,0.0,0.0,0.0,0.0,0.0,0.0,0.0,0.0,0.0,0.0,0.0,0.0,0.0,0.0,0.0,0.0,0.0,0.0,0.0,0.0,0.0,0.0,0.0,0.0,0.0,0.0,0.0,0.0,0.0,0.0,0.0,0.0,0.0,0.0,0.0,0.0,0.0,0.0,0.0,0.0,0.0,0.0,0.0,0.0,0.0,0.0,0.0,0.0,0.0,0.0,0.0,0.0,0.0,0.0,0.0,0.0,0.0,0.0,0.0,0.0,0.0,0.0,0.0
1.0,0.8050847649574278,0.4322033822536469,0.0381355918943882,0.03389830514788628,0.10593220591545104,0.13983051478862762,0.173728808760643,0.1949152499437332,0.21186441183090207,0.18644067645072931,0.1779661029577255,0.16949152946472168,0.20338982343673706,0.19067797064781186,0.1652542352676392,0.1652542352676392,0.1525423675775528,0.15677966177463531,0.13135592639446256,0.1271186470985413,0.1271186470985413,0.1271186470985413,0.11440677940845488,0.10169491171836853,0.11016949266195296,0.0974576249718666,0.08474576473236085,0.08898305147886275,0.11016949266195296,0.11016949266195296,0.10169491171836853,0.13559322059154513,0.1652542352676392,0.18644067645072931,0.22457626461982727,0.27966102957725525,0.3516949117183685,0.385593205690384,0.394067794084549,0.3983050882816314,0.4067796468734741,0.3983050882816314,0.3601695001125336,0.3516949117183685,0.3686440587043762,0.347457617521286,0.3305084705352784,0.3432203531265259,0.3432203531265259,0.3262711763381958,0.31355932354927063,0.3305084705352784,0.31779661774635315,0.33898305892944336,0.3262711763381958,0.31779661774635315,0.33474576473236084,0.31779661774635315,0.30084747076034546,0.31355932354927063,0.33898305892944336,0.347457617521286,0.355932205915451,0.385593205690384,0.402542382478714,0.3983050882816314,0.3983050882816314,0.41101694107055664,0.41101694107055664,0.3686440587043762,0.33898305892944336,0.31355932354927063,0.3050847351551056,0.2838982939720153,0.2542372941970826,0.2711864411830903,0.27542373538017273,0.26694914698600763,0.25,0.25847458839416504,0.2838982939720153,0.2881355881690979,0.3983050882816314,0.6864407062530518,0.9745762944221495,0.7754237055778502,0.3601695001125336,0.0,0.050847455859184265,0.06355932354927063,0.11440677940845488,0.16101695597171786,0.19067797064781186,0.16101695597171786,0.13983051478862762,0.16101695597171786,0.182203397154808,0.1652542352676392,0.13983051478862762,0.13559322059154513,0.14406779408454895,0.0,0.0,0.0,0.0,0.0,0.0,0.0,0.0,0.0,0.0,0.0,0.0,0.0,0.0,0.0,0.0,0.0,0.0,0.0,0.0,0.0,0.0,0.0,0.0,0.0,0.0,0.0,0.0,0.0,0.0,0.0,0.0,0.0,0.0,0.0,0.0,0.0,0.0,0.0,0.0,0.0,0.0,0.0,0.0,0.0,0.0,0.0,0.0,0.0,0.0,0.0,0.0,0.0,0.0,0.0,0.0,0.0,0.0,0.0,0.0,0.0,0.0,0.0,0.0,0.0,0.0,0.0,0.0,0.0,0.0,0.0,0.0,0.0,0.0,0.0,0.0,0.0,0.0,0.0,0.0,0.0,0.0,0.0,0.0,0.0,0.0
0.9971671104431152,0.7960339784622193,0.2152974456548691,0.0,0.1756373941898346,0.29461756348609924,0.2521246373653412,0.22096318006515506,0.2974504232406617,0.2549574971199037,0.2747875452041625,0.277620404958725,0.322946161031723,0.4135977327823639,0.277620404958725,0.32011330127716064,0.4079320132732391,0.37677052617073054,0.3711048066616057,0.5297450423240662,0.478753536939621,0.5439093708992004,0.5042492747306824,0.6260623335838318,0.6288951635360718,0.5920680165290833,0.6572238206863404,1.0,0.8923512697219848,0.9433428049087526,0.9291784763336178,0.4645892381668089,0.5325779318809509,0.399433434009552,0.6203966140747071,0.3937677145004272,0.3342776298522949,0.4759206771850586,0.5042492747306824,0.0,0.0,0.0,0.0,0.0,0.0,0.0,0.0,0.0,0.0,0.0,0.0,0.0,0.0,0.0,0.0,0.0,0.0,0.0,0.0,0.0,0.0,0.0,0.0,0.0,0.0,0.0,0.0,0.0,0.0,0.0,0.0,0.0,0.0,0.0,0.0,0.0,0.0,0.0,0.0,0.0,0.0,0.0,0.0,0.0,0.0,0.0,0.0,0.0,0.0,0.0,0.0,0.0,0.0,0.0,0.0,0.0,0.0,0.0,0.0,0.0,0.0,0.0,0.0,0.0,0.0,0.0,0.0,0.0,0.0,0.0,0.0,0.0,0.0,0.0,0.0,0.0,0.0,0.0,0.0,0.0,0.0,0.0,0.0,0.0,0.0,0.0,0.0,0.0,0.0,0.0,0.0,0.0,0.0,0.0,0.0,0.0,0.0,0.0,0.0,0.0,0.0,0.0,0.0,0.0,0.0,0.0,0.0,0.0,0.0,0.0,0.0,0.0,0.0,0.0,0.0,0.0,0.0,0.0,0.0,0.0,0.0,0.0,0.0,0.0,0.0,0.0,0.0,0.0,0.0,0.0,0.0,0.0,0.0,0.0,0.0,0.0,0.0,0.0,0.0,0.0,0.0,0.0,0.0,0.0,0.0,0.0,0.0,0.0
0.9715639948844907,0.9170616269111632,0.691943109035492,0.3625592291355133,0.15165877342224124,0.15402843058109286,0.12085308134555818,0.12085308134555818,0.08767772465944289,0.08530806005001068,0.08056872338056563,0.09478673338890076,0.07109005004167558,0.08530806005001068,0.09004739671945572,0.12085308134555818,0.11611374467611313,0.15639810264110562,0.16824644804000854,0.18483412265777588,0.19431279599666595,0.22985781729221344,0.22985781729221344,0.2725118398666381,0.28199052810668945,0.29620853066444397,0.29146918654441833,0.29857820272445684,0.28672987222671503,0.28672987222671503,0.26303318142890925,0.26066350936889643,0.25355449318885803,0.24881516396999365,0.22985781729221344,0.2369668185710907,0.21327014267444608,0.23459716141223905,0.21563981473445887,0.22511848807334892,0.22274881601333613,0.21563981473445887,0.2061611413955688,0.2109004706144333,0.1895734667778015,0.1990521401166916,0.19431279599666595,0.2014217972755432,0.1966824680566788,0.21800947189331046,0.20853079855442047,0.22037914395332334,0.21327014267444608,0.21563981473445887,0.1966824680566788,0.21563981473445887,0.18720379471778867,0.21327014267444608,0.20379146933555606,0.22274881601333613,0.22274881601333613,0.23933649063110354,0.22748814523220065,0.2369668185710907,0.23222748935222626,0.24407583475112915,0.22274881601333613,0.2417061626911164,0.22274881601333613,0.23222748935222626,0.21327014267444608,0.22748814523220065,0.21563981473445887,0.21563981473445887,0.20379146933555606,0.2109004706144333,0.2014217972755432,0.22274881601333613,0.21327014267444608,0.22985781729221344,0.22511848807334892,0.2369668185710907,0.20379146933555606,0.21800947189331046,0.1895734667778015,0.21563981473445887,0.2109004706144333,0.22748814523220065,0.20379146933555606,0.21327014267444608,0.1990521401166916,0.21327014267444608,0.2014217972755432,0.22274881601333613,0.2061611413955688,0.22985781729221344,0.22748814523220065,0.24407583475112915,0.24881516396999365,0.3080568611621857,0.29620853066444397,0.3649289011955261,0.4099526107311248,0.6824644804000854,0.8862559199333192,1.0,0.9881516695022584,0.8744075894355775,0.6635071039199828,0.3601895868778229,0.1303317546844482,0.10900473594665527,0.06635071337223054,0.04502369835972786,0.023696683347225186,0.030805686488747593,0.0,0.02132701501250267,0.011848341673612593,0.023696683347225186,0.011848341673612593,0.030805686488747593,0.02132701501250267,0.04265403002500534,0.0,0.0,0.0,0.0,0.0,0.0,0.0,0.0,0.0,0.0,0.0,0.0,0.0,0.0,0.0,0.0,0.0,0.0,0.0,0.0,0.0,0.0,0.0,0.0,0.0,0.0,0.0,0.0,0.0,0.0,0.0,0.0,0.0,0.0,0.0,0.0,0.0,0.0,0.0,0.0,0.0,0.0,0.0,0.0,0.0,0.0,0.0,0.0,0.0,0.0,0.0,0.0,0.0,0.0,0.0,0.0,0.0,0.0,0.0,0.0,0.0,0.0,0.0,0.0
1.0,0.7479674816131591,0.16666667163372034,0.020325202494859692,0.105691060423851,0.09146341681480408,0.08333333581686017,0.07113821059465407,0.06504064798355103,0.054878048598766334,0.05691057071089745,0.0508130080997944,0.05284553021192552,0.0508130080997944,0.054878048598766334,0.05691057071089745,0.06504064798355103,0.0630081295967102,0.0731707289814949,0.0731707289814949,0.08130080997943878,0.09146341681480408,0.1036585345864296,0.11178861558437347,0.13821138441562653,0.15243902802467346,0.1788617819547653,0.2032520323991776,0.2256097495555878,0.2418699115514755,0.2581300735473632,0.2642276287078857,0.2743902504444122,0.26829269528388977,0.2642276287078857,0.2418699115514755,0.2235772311687469,0.18495935201644892,0.16463415324687955,0.14227642118930814,0.12804877758026126,0.1158536598086357,0.12398374080657965,0.105691060423851,0.11178861558437347,0.10975609719753264,0.1178861781954765,0.11178861558437347,0.11991869658231735,0.1178861781954765,0.12804877758026126,0.12195122241973876,0.12601625919342038,0.12601625919342038,0.1361788660287857,0.12804877758026126,0.12804877758026126,0.12601625919342038,0.13211381435394287,0.12195122241973876,0.12804877758026126,0.1158536598086357,0.12195122241973876,0.11178861558437347,0.1158536598086357,0.105691060423851,0.11178861558437347,0.10162601619958876,0.10772357881069183,0.09959349781274797,0.09959349781274797,0.09552845358848573,0.10162601619958876,0.08943089097738266,0.09349593520164487,0.09552845358848573,0.09349593520164487,0.09349593520164487,0.10162601619958876,0.09146341681480408,0.1036585345864296,0.11382114142179488,0.12601625919342038,0.12398374080657965,0.14227642118930814,0.13414634764194489,0.13821138441562653,0.11991869658231735,0.1178861781954765,0.12195122241973876,0.11382114142179488,0.09552845358848573,0.09146341681480408,0.07520325481891632,0.07520325481891632,0.06707317382097244,0.06910569220781326,0.0630081295967102,0.06910569220781326,0.06910569220781326,0.07113821059465407,0.03658536449074745,0.0,0.10975609719753264,0.5142276287078859,0.9126016497612,0.9146341681480408,0.2601625919342041,0.024390242993831638,0.08739837259054184,0.09349593520164487,0.07926829159259795,0.07113821059465407,0.06097561120986938,0.05691057071089745,0.04878048598766327,0.054878048598766334,0.0508130080997944,0.05894308909773826,0.05691057071089745,0.0630081295967102,0.06097561120986938,0.06910569220781326,0.06707317382097244,0.08130080997943878,0.08536585420370102,0.0,0.0,0.0,0.0,0.0,0.0,0.0,0.0,0.0,0.0,0.0,0.0,0.0,0.0,0.0,0.0,0.0,0.0,0.0,0.0,0.0,0.0,0.0,0.0,0.0,0.0,0.0,0.0,0.0,0.0,0.0,0.0,0.0,0.0,0.0,0.0,0.0,0.0,0.0,0.0,0.0,0.0,0.0,0.0,0.0,0.0,0.0,0.0,0.0,0.0,0.0,0.0,0.0,0.0,0.0,0.0,0.0,0.0,0.0,0.0,0.0,0.0
1.0,0.7055393457412721,0.5102040767669677,0.25072887539863586,0.1428571492433548,0.06997084617614745,0.04373177886009216,0.04373177886009216,0.008746355772018431,0.026239067316055298,0.034985423088073724,0.029154518619179726,0.026239067316055298,0.0379008762538433,0.04081632569432258,0.04081632569432258,0.04081632569432258,0.026239067316055298,0.029154518619179726,0.029154518619179726,0.0379008762538433,0.02040816284716129,0.04664723202586175,0.0641399398446083,0.08746355772018433,0.10204081982374193,0.1399416923522949,0.1574344038963318,0.1924198269844055,0.20408163964748385,0.21282799541950226,0.19533528387546534,0.1807580143213272,0.17201165854930878,0.16326530277729032,0.14868804812431335,0.14577259123325348,0.13702623546123505,0.1311953365802765,0.13702623546123505,0.13702623546123505,0.1282798796892166,0.1399416923522949,0.1311953365802765,0.13702623546123505,0.13702623546123505,0.1428571492433548,0.13411079347133634,0.14577259123325348,0.1399416923522949,0.15160350501537326,0.1311953365802765,0.1399416923522949,0.1428571492433548,0.14577259123325348,0.1574344038963318,0.1982507258653641,0.1895043700933456,0.2157434374094009,0.24781341850757602,0.25072887539863586,0.2653061151504517,0.2536443173885345,0.22740525007247925,0.16326530277729032,0.10787171870470047,0.08454810827970502,0.0932944640517235,0.09620991349220273,0.08746355772018433,0.0932944640517235,0.10787171870470047,0.10204081982374193,0.11370262503623962,0.11953353136777878,0.1311953365802765,0.2099125385284424,0.5014577507972717,0.8425655961036682,0.9883381724357606,0.7930029034614564,0.565597653388977,0.3469387888908386,0.19533528387546534,0.06705539673566817,0.04373177886009216,0.023323616012930874,0.002915452001616359,0.0,0.002915452001616359,0.014577259309589863,0.023323616012930874,0.03206996992230415,0.04081632569432258,0.0379008762538433,0.0,0.0,0.0,0.0,0.0,0.0,0.0,0.0,0.0,0.0,0.0,0.0,0.0,0.0,0.0,0.0,0.0,0.0,0.0,0.0,0.0,0.0,0.0,0.0,0.0,0.0,0.0,0.0,0.0,0.0,0.0,0.0,0.0,0.0,0.0,0.0,0.0,0.0,0.0,0.0,0.0,0.0,0.0,0.0,0.0,0.0,0.0,0.0,0.0,0.0,0.0,0.0,0.0,0.0,0.0,0.0,0.0,0.0,0.0,0.0,0.0,0.0,0.0,0.0,0.0,0.0,0.0,0.0,0.0,0.0,0.0,0.0,0.0,0.0,0.0,0.0,0.0,0.0,0.0,0.0,0.0,0.0,0.0,0.0,0.0,0.0,0.0,0.0,0.0,0.0,0.0,0.0,0.0
0.9386973381042479,0.7107279896736145,0.0,0.013409961946308613,0.005747126415371896,0.03065134026110172,0.06704980880022049,0.09195402264595033,0.08812260627746582,0.09770114719867704,0.09195402264595033,0.09770114719867704,0.0957854390144348,0.11111111193895344,0.10153256356716156,0.1187739446759224,0.11302682012319565,0.12260536104440688,0.11685823649168015,0.13026820123195648,0.12260536104440688,0.1398467421531677,0.13601532578468326,0.14559386670589447,0.14176245033740995,0.1590038239955902,0.1551724076271057,0.1781609207391739,0.17241379618644712,0.19348658621311188,0.19923371076583865,0.2203065156936645,0.2356321811676025,0.268199235200882,0.2854406237602233,0.32183909416198725,0.3409961760044097,0.3735632300376892,0.4003831446170807,0.4367816150188447,0.4482758641242981,0.4827586114406586,0.4789271950721741,0.4655172526836396,0.4118773937225341,0.3601532578468323,0.2796934843063354,0.22413793206214905,0.1628352552652359,0.13601532578468326,0.1072796955704689,0.10153256356716156,0.08237548172473907,0.08045977354049681,0.07088122516870499,0.07471264153718947,0.06513410061597824,0.06704980880022049,0.06704980880022049,0.08045977354049681,0.06513410061597824,0.08237548172473907,0.07279693335294722,0.08429118990898131,0.07662834972143172,0.08237548172473907,0.07854405790567398,0.09003831446170807,0.08045977354049681,0.08812260627746582,0.07854405790567398,0.09003831446170807,0.08237548172473907,0.09195402264595033,0.08429118990898131,0.08812260627746582,0.07854405790567398,0.09003831446170807,0.08429118990898131,0.09003831446170807,0.08620689809322356,0.09386973083019257,0.08812260627746582,0.09195402264595033,0.09003831446170807,0.0957854390144348,0.09195402264595033,0.09386973083019257,0.09003831446170807,0.0957854390144348,0.0957854390144348,0.09003831446170807,0.09195402264595033,0.1034482792019844,0.09386973083019257,0.10153256356716156,0.0957854390144348,0.09961685538291934,0.09961685538291934,0.11111111193895344,0.09961685538291934,0.10919540375471117,0.1034482792019844,0.10919540375471117,0.1034482792019844,0.12068965286016466,0.1187739446759224,0.134099617600441,0.12643678486347198,0.14559386670589447,0.13793103396892548,0.1475095748901367,0.134099617600441,0.12835249304771426,0.12068965286016466,0.12643678486347198,0.12260536104440688,0.12643678486347198,0.13026820123195648,0.13601532578468326,0.13793103396892548,0.14367815852165222,0.1149425283074379,0.09770114719867704,0.19540229439735407,0.6647509336471557,1.0,0.6628352403640748,0.00766283506527543,0.0957854390144348,0.08237548172473907,0.12068965286016466,0.1590038239955902,0.17241379618644712,0.16475096344947815,0.1819923371076584,0.1781609207391739,0.19348658621311188,0.18390804529190066,0.19348658621311188,0.18965516984462732,0.2068965584039688,0.2011494189500809,0.21072797477245328,0.21072797477245328,0.22222222387790685,0.21839080750942236,0.2356321811676025,0.2298850566148758,0.24904213845729825,0.0,0.0,0.0,0.0,0.0,0.0,0.0,0.0,0.0,0.0,0.0,0.0,0.0,0.0,0.0,0.0,0.0,0.0,0.0,0.0,0.0,0.0,0.0,0.0,0.0,0.0,0.0,0.0,0.0,0.0,0.0,0.0,0.0,0.0,0.0,0.0,0.0,0.0
0.9395349025726318,0.8883720636367798,0.18372093141078946,0.0162790697067976,0.22325581312179565,0.2906976640224457,0.272093027830124,0.2744185924530029,0.27906978130340576,0.26744186878204346,0.26976743340492243,0.272093027830124,0.24418604373931885,0.22558139264583585,0.21627907454967496,0.22325581312179565,0.2279069721698761,0.2511627972126008,0.25581395626068115,0.26511627435684204,0.26744186878204346,0.2930232584476471,0.3000000119209289,0.3255814015865325,0.30930233001708984,0.302325576543808,0.3162790834903717,0.3162790834903717,0.3069767355918884,0.302325576543808,0.26511627435684204,0.24883720278739924,0.2325581461191177,0.22558139264583585,0.20930232107639316,0.20930232107639316,0.2116279006004333,0.21627907454967496,0.2116279006004333,0.22558139264583585,0.2279069721698761,0.2116279006004333,0.2116279006004333,0.22325581312179565,0.2279069721698761,0.234883725643158,0.234883725643158,0.24186046421527865,0.3674418628215789,0.7023255825042725,1.0,0.5372093319892883,0.0,0.1906976699829101,0.272093027830124,0.2581395208835601,0.24186046421527865,0.24651162326335904,0.2279069721698761,0.22558139264583585,0.20930232107639316,0.2023255825042725,0.197674423456192,0.22558139264583585,0.0,0.0,0.0,0.0,0.0,0.0,0.0,0.0,0.0,0.0,0.0,0.0,0.0,0.0,0.0,0.0,0.0,0.0,0.0,0.0,0.0,0.0,0.0,0.0,0.0,0.0,0.0,0.0,0.0,0.0,0.0,0.0,0.0,0.0,0.0,0.0,0.0,0.0,0.0,0.0,0.0,0.0,0.0,0.0,0.0,0.0,0.0,0.0,0.0,0.0,0.0,0.0,0.0,0.0,0.0,0.0,0.0,0.0,0.0,0.0,0.0,0.0,0.0,0.0,0.0,0.0,0.0,0.0,0.0,0.0,0.0,0.0,0.0,0.0,0.0,0.0,0.0,0.0,0.0,0.0,0.0,0.0,0.0,0.0,0.0,0.0,0.0,0.0,0.0,0.0,0.0,0.0,0.0,0.0,0.0,0.0,0.0,0.0,0.0,0.0,0.0,0.0,0.0,0.0,0.0,0.0,0.0,0.0,0.0,0.0,0.0,0.0,0.0,0.0,0.0,0.0,0.0,0.0,0.0,0.0,0.0,0.0,0.0,1.0
1.0,0.8815165758132933,0.6966824531555176,0.6635071039199828,0.6445497870445251,0.6303317546844481,0.5734597444534301,0.5402843356132507,0.5876777172088623,0.6303317546844481,0.6161137223243713,0.6303317546844481,0.6161137223243713,0.5971564054489137,0.7251184582710266,0.606635093688965,0.6445497870445251,0.5924170613288879,0.6587677597999572,0.6208530664443969,0.6682464480400084,0.606635093688965,0.691943109035492,0.606635093688965,0.6682464480400084,0.6635071039199828,0.649289071559906,0.6255924105644225,0.6729857921600342,0.5402843356132507,0.5924170613288879,0.5450236797332765,0.5402843356132507,0.5355450510978698,0.4407582879066467,0.4360189437866209,0.4454976320266724,0.4075829386711121,0.3601895868778229,0.3222748935222626,0.3838862478733063,0.345971554517746,0.3080568611621857,0.2843602001667023,0.3364928960800171,0.29383885860443115,0.21327014267444608,0.2654028534889221,0.27014216780662537,0.1611374467611313,0.1990521401166916,0.18483412265777588,0.20853079855442047,0.15165877342224124,0.15639810264110562,0.14691942930221555,0.25592416524887085,0.20379146933555606,0.2417061626911164,0.25592416524887085,0.2369668185710907,0.1611374467611313,0.1611374467611313,0.1611374467611313,0.11374407261610033,0.10900473594665527,0.10426539927721024,0.15165877342224124,0.11374407261610033,0.07109005004167558,0.08530806005001068,0.07109005004167558,0.12322274595499035,0.12322274595499035,0.22748814523220065,0.12322274595499035,0.15639810264110562,0.2511848211288452,0.23222748935222626,0.1658767759799957,0.15165877342224124,0.1990521401166916,0.10426539927721024,0.0,0.11848340928554538,0.15165877342224124,0.2890995144844055,0.6113743782043457,0.5687204003334045,0.3649289011955261,0.23222748935222626,0.20853079855442047,0.1658767759799957,0.1611374467611313,0.1895734667778015,0.1753554493188858,0.20853079855442047,0.15639810264110562,0.26066350936889643,0.18009479343891144,0.18483412265777588,0.1611374467611313,0.13270142674446106,0.21800947189331046,0.17061612010002136,0.15165877342224124,0.0,0.0,0.0,0.0,0.0,0.0,0.0,0.0,0.0,0.0,0.0,0.0,0.0,0.0,0.0,0.0,0.0,0.0,0.0,0.0,0.0,0.0,0.0,0.0,0.0,0.0,0.0,0.0,0.0,0.0,0.0,0.0,0.0,0.0,0.0,0.0,0.0,0.0,0.0,0.0,0.0,0.0,0.0,0.0,0.0,0.0,0.0,0.0,0.0,0.0,0.0,0.0,0.0,0.0,0.0,0.0,0.0,0.0,0.0,0.0,0.0,0.0,0.0,0.0,0.0,0.0,0.0,0.0,0.0,0.0,0.0,0.0,0.0,0.0,0.0,0.0,0.0,0.0,0.0,0.0,0.0,0.0
0.9723991751670836,0.5966029763221741,0.0552016980946064,0.0276008490473032,0.10403396934270856,0.07643312215805052,0.06369426846504211,0.053078554570674896,0.03821656107902528,0.053078554570674896,0.031847134232521064,0.044585987925529466,0.031847134232521064,0.042462844401597984,0.042462844401597984,0.04883227124810219,0.046709127724170685,0.05944798141717912,0.05944798141717912,0.06794055551290511,0.08067940920591354,0.08492568880319595,0.09766454249620436,0.12101911008358,0.13375796377658847,0.16348195075988767,0.1804670840501785,0.20169851183891296,0.20594479143619532,0.2377919256687165,0.2314224988222122,0.25053077936172485,0.24628449976444244,0.24628449976444244,0.21019108593463895,0.1995753645896912,0.16348195075988767,0.14649681746959686,0.12314224988222122,0.12101911008358,0.1104033961892128,0.1082802563905716,0.10403396934270856,0.1082802563905716,0.1104033961892128,0.116772823035717,0.1146496832370758,0.12314224988222122,0.11889596283435824,0.13163481652736664,0.12738853693008426,0.13375796377658847,0.12951168417930606,0.13800424337387088,0.12951168417930606,0.13375796377658847,0.12526538968086245,0.12738853693008426,0.116772823035717,0.116772823035717,0.10403396934270856,0.1104033961892128,0.09978768229484558,0.10403396934270856,0.09554140269756316,0.09978768229484558,0.08704882860183716,0.09341825544834136,0.09129511564970016,0.09766454249620436,0.09129511564970016,0.09766454249620436,0.09341825544834136,0.1061571091413498,0.116772823035717,0.12526538968086245,0.12314224988222122,0.14225053787231445,0.13375796377658847,0.1358811110258102,0.12101911008358,0.12314224988222122,0.11889596283435824,0.1104033961892128,0.08917197585105895,0.08704882860183716,0.06794055551290511,0.07006369531154633,0.06369426846504211,0.07006369531154633,0.06369426846504211,0.07218683511018753,0.06369426846504211,0.07218683511018753,0.023354563862085342,0.0,0.1443736702203751,0.6199575662612915,1.0,0.8004246354103092,0.08917197585105895,0.02972399070858956,0.12101911008358,0.09129511564970016,0.07855626195669174,0.06369426846504211,0.053078554570674896,0.0573248416185379,0.046709127724170685,0.050955414772033684,0.050955414772033684,0.0552016980946064,0.053078554570674896,0.05944798141717912,0.0573248416185379,0.07218683511018753,0.07218683511018753,0.07855626195669174,0.0,0.0,0.0,0.0,0.0,0.0,0.0,0.0,0.0,0.0,0.0,0.0,0.0,0.0,0.0,0.0,0.0,0.0,0.0,0.0,0.0,0.0,0.0,0.0,0.0,0.0,0.0,0.0,0.0,0.0,0.0,0.0,0.0,0.0,0.0,0.0,0.0,0.0,0.0,0.0,0.0,0.0,0.0,0.0,0.0,0.0,0.0,0.0,0.0,0.0,0.0,0.0,0.0,0.0,0.0,0.0,0.0,0.0,0.0,0.0,0.0,0.0,0.0,0.0,0.0,0.0,0.0,0.0,0.0,0.0
0.9823321700096129,0.9893993139266968,0.6325088143348694,0.08480565249919891,0.0,0.12014134228229525,0.13780918717384338,0.17667844891548154,0.16961130499839785,0.17314487695693967,0.17667844891548154,0.2120141386985779,0.187279149889946,0.2120141386985779,0.2120141386985779,0.2120141386985779,0.1943462938070297,0.21908126771450046,0.1978798657655716,0.2261484116315841,0.187279149889946,0.19081272184848785,0.1837455779314041,0.23321554064750674,0.21554769575595853,0.2261484116315841,0.21554769575595853,0.24028268456459045,0.23321554064750674,0.2473498284816742,0.2579505443572998,0.2650176584720611,0.2756183743476868,0.2862190902233124,0.2826855182647705,0.3038869202136993,0.2862190902233124,0.3003533482551575,0.3074204921722412,0.2897526621818542,0.27915194630622864,0.27915194630622864,0.26855123043060297,0.2756183743476868,0.2756183743476868,0.27915194630622864,0.2826855182647705,0.3144876360893249,0.3109540641307831,0.3356890380382537,0.3180212080478668,0.332155466079712,0.2932862043380737,0.2968197762966156,0.2720848023891449,0.2968197762966156,0.2614840865135193,0.2650176584720611,0.3109540641307831,0.33922260999679565,0.2968197762966156,0.2897526621818542,0.2968197762966156,0.3074204921722412,0.3003533482551575,0.3003533482551575,0.27915194630622864,0.3003533482551575,0.27915194630622864,0.2897526621818542,0.4664310812950135,0.6572437882423401,0.8303886651992796,1.0,0.8763250708580018,0.3710247278213501,0.07067137956619263,0.13074204325675964,0.1484098881483078,0.2261484116315841,0.1943462938070297,0.2014134228229523,0.21554769575595853,0.2473498284816742,0.2473498284816742,0.2579505443572998,0.2438162565231323,0.2932862043380737,0.0,0.0,0.0,0.0,0.0,0.0,0.0,0.0,0.0,0.0,0.0,0.0,0.0,0.0,0.0,0.0,0.0,0.0,0.0,0.0,0.0,0.0,0.0,0.0,0.0,0.0,0.0,0.0,0.0,0.0,0.0,0.0,0.0,0.0,0.0,0.0,0.0,0.0,0.0,0.0,0.0,0.0,0.0,0.0,0.0,0.0,0.0,0.0,0.0,0.0,0.0,0.0,0.0,0.0,0.0,0.0,0.0,0.0,0.0,0.0,0.0,0.0,0.0,0.0,0.0,0.0,0.0,0.0,0.0,0.0,0.0,0.0,0.0,0.0,0.0,0.0,0.0,0.0,0.0,0.0,0.0,0.0,0.0,0.0,0.0,0.0,0.0,0.0,0.0,0.0,0.0,0.0,0.0,0.0,0.0,0.0,0.0,0.0,0.0,0.0
0.0,0.019693654030561447,0.12035010755062102,0.1991247236728668,0.1859956234693527,0.24070021510124204,0.2932166159152985,0.31509846448898315,0.2910284399986267,0.2363238483667373,0.24945294857025144,0.2450765818357468,0.2625820636749268,0.2691466212272644,0.3085339069366455,0.3304157555103302,0.391684889793396,0.4223194718360901,0.4726476967334747,0.5054704546928406,0.5667396187782289,0.5995623469352722,0.6564551591873169,0.7045952081680297,0.7374179363250734,0.7483588457107544,0.7439824938774108,0.695842444896698,0.6586433053016663,0.5820568799972534,0.5382932424545288,0.4814004302024841,0.4442013204097748,0.3938730955123901,0.3851203620433808,0.3566739559173584,0.34573304653167725,0.3216630220413209,0.332603931427002,0.319474846124649,0.3304157555103302,0.3347921371459961,0.4617067873477936,0.52078777551651,0.5951859951019287,0.8752735257148742,1.0,0.9474835991859438,0.8118162155151366,0.6192560195922852,0.3851203620433808,0.19037199020385745,0.17724289000034332,0.12035010755062102,0.11816192418336867,0.08096279948949814,0.08752734959125519,0.07221006602048875,0.08533916622400285,0.08096279948949814,0.09409190714359283,0.09846827387809752,0.11378555744886396,0.0,0.0,0.0,0.0,0.0,0.0,0.0,0.0,0.0,0.0,0.0,0.0,0.0,0.0,0.0,0.0,0.0,0.0,0.0,0.0,0.0,0.0,0.0,0.0,0.0,0.0,0.0,0.0,0.0,0.0,0.0,0.0,0.0,0.0,0.0,0.0,0.0,0.0,0.0,0.0,0.0,0.0,0.0,0.0,0.0,0.0,0.0,0.0,0.0,0.0,0.0,0.0,0.0,0.0,0.0,0.0,0.0,0.0,0.0,0.0,0.0,0.0,0.0,0.0,0.0,0.0,0.0,0.0,0.0,0.0,0.0,0.0,0.0,0.0,0.0,0.0,0.0,0.0,0.0,0.0,0.0,0.0,0.0,0.0,0.0,0.0,0.0,0.0,0.0,0.0,0.0,0.0,0.0,0.0,0.0,0.0,0.0,0.0,0.0,0.0,0.0,0.0,0.0,0.0,0.0,0.0,0.0,0.0,0.0,0.0,0.0,0.0,0.0,0.0,0.0,0.0,0.0,0.0,0.0,0.0,0.0,0.0,0.0,0.0,2.0
0.9538745284080504,0.952029526233673,0.4428044259548187,0.0,0.09963099658489227,0.21955719590187076,0.234317347407341,0.26752766966819763,0.2804428040981293,0.2619926333427429,0.2656826674938201,0.27306273579597473,0.2804428040981293,0.27306273579597473,0.27121770381927485,0.2822878360748291,0.2841328382492065,0.27675276994705195,0.27121770381927485,0.2878228724002838,0.2878228724002838,0.2822878360748291,0.2822878360748291,0.2970479726791382,0.2988929748535156,0.2896679043769836,0.3025830388069152,0.3154981434345245,0.32287824153900146,0.32287824153900146,0.33025830984115595,0.3505535125732422,0.3653136491775513,0.3671586811542512,0.3874538838863373,0.4095940887928009,0.4261992573738098,0.4317343235015869,0.4391143918037415,0.4630996286869051,0.4594095945358276,0.4557195603847504,0.4317343235015869,0.4225092232227325,0.4059040546417236,0.3763837516307831,0.3487084805965424,0.3468634784221649,0.32287824153900146,0.31365314126014704,0.3099631071090698,0.3099631071090698,0.30811807513237,0.3044280409812927,0.3025830388069152,0.30811807513237,0.30811807513237,0.2970479726791382,0.2970479726791382,0.3062730729579925,0.3062730729579925,0.3044280409812927,0.3025830388069152,0.30811807513237,0.31365314126014704,0.30811807513237,0.30811807513237,0.3154981434345245,0.3173431754112244,0.3154981434345245,0.3099631071090698,0.3173431754112244,0.31365314126014704,0.3025830388069152,0.3007380068302154,0.3062730729579925,0.3025830388069152,0.2970479726791382,0.2915129065513611,0.3007380068302154,0.2988929748535156,0.2896679043769836,0.2822878360748291,0.2933579385280609,0.2988929748535156,0.2841328382492065,0.2822878360748291,0.2933579385280609,0.2933579385280609,0.2841328382492065,0.2822878360748291,0.2859778702259064,0.2933579385280609,0.2878228724002838,0.2804428040981293,0.2915129065513611,0.2896679043769836,0.2822878360748291,0.2804428040981293,0.2859778702259064,0.2878228724002838,0.2841328382492065,0.2749077379703522,0.2841328382492065,0.29520294070243835,0.2859778702259064,0.2859778702259064,0.29520294070243835,0.29520294070243835,0.2915129065513611,0.2804428040981293,0.2915129065513611,0.2988929748535156,0.2878228724002838,0.2859778702259064,0.2970479726791382,0.2970479726791382,0.2933579385280609,0.2915129065513611,0.2933579385280609,0.3007380068302154,0.2915129065513611,0.2859778702259064,0.2915129065513611,0.29520294070243835,0.2896679043769836,0.2915129065513611,0.31365314126014704,0.3339483439922333,0.33210331201553345,0.339483380317688,0.3542435467243194,0.3523985147476196,0.33210331201553345,0.32103320956230164,0.33210331201553345,0.32103320956230164,0.2915129065513611,0.27306273579597473,0.26752766966819763,0.26937270164489746,0.2638376355171204,0.2583025693893433,0.26752766966819763,0.27675276994705195,0.2619926333427429,0.26752766966819763,0.2804428040981293,0.27859777212142944,0.27675276994705195,0.2804428040981293,0.30811807513237,0.3671586811542512,0.5719557404518127,0.8431734442710876,1.0,0.6402214169502258,0.09778597950935364,0.0535055361688137,0.23985239863395685,0.26014760136604304,0.26752766966819763,0.2841328382492065,0.2822878360748291,0.2841328382492065,0.2804428040981293,0.2804428040981293,0.2841328382492065,0.2933579385280609,0.27306273579597473,0.27306273579597473,0.2841328382492065,0.2933579385280609,0.2859778702259064,0.27306273579597473,0.2915129065513611,0.2970479726791382,0.2896679043769836,0.2878228724002838,0.3062730729579925,0.3099631071090698,0.3118081092834473,0.3154981434345245,0.33210331201553345,0.3505535125732422,0.0,0.0,0.0
1.0,0.921739101409912,0.7391304373741151,0.5478261113166809,0.33478260040283203,0.18260869383811956,0.11304347962141036,0.13913042843341827,0.1608695685863495,0.156521737575531,0.1521739065647125,0.1521739065647125,0.156521737575531,0.156521737575531,0.1608695685863495,0.1739130467176437,0.18695652484893802,0.1739130467176437,0.17826086282730105,0.19130434095859528,0.20434781908988955,0.20434781908988955,0.19565217196941373,0.21304348111152646,0.23478260636329645,0.230434775352478,0.21739129722118372,0.2391304373741149,0.2478260844945908,0.252173900604248,0.2434782534837723,0.2565217316150665,0.2565217316150665,0.2434782534837723,0.230434775352478,0.22173912823200226,0.21739129722118372,0.18695652484893802,0.156521737575531,0.156521737575531,0.13913042843341827,0.11739130318164825,0.11304347962141036,0.1217391267418861,0.1217391267418861,0.104347825050354,0.09565217047929764,0.09130434691905977,0.10000000149011616,0.10000000149011616,0.07391304522752762,0.09130434691905977,0.07391304522752762,0.0782608687877655,0.06086956337094306,0.06956521421670912,0.06086956337094306,0.03913043439388275,0.03043478168547153,0.04347826167941093,0.03043478168547153,0.01739130355417728,0.03478260710835456,0.021739130839705467,0.03043478168547153,0.03478260710835456,0.0,0.021739130839705467,0.03043478168547153,0.00869565177708864,0.0,0.013043478131294249,0.013043478131294249,0.013043478131294249,0.013043478131294249,0.01739130355417728,0.01739130355417728,0.00434782588854432,0.00434782588854432,0.01739130355417728,0.03043478168547153,0.01739130355417728,0.013043478131294249,0.01739130355417728,0.04782608523964882,0.03043478168547153,0.06521739065647125,0.11304347962141036,0.10869564861059187,0.11739130318164825,0.1304347813129425,0.14347825944423678,0.1521739065647125,0.14782609045505524,0.06956521421670912,0.08695652335882187,0.0782608687877655,0.03478260710835456,0.013043478131294249,0.06956521421670912,0.06086956337094306,0.06521739065647125,0.1217391267418861,0.19565217196941373,0.4000000059604645,0.726086974143982,0.8826087117195129,0.91304349899292,0.8999999761581421,0.721739113330841,0.47826087474823,0.2565217316150665,0.1304347813129425,0.104347825050354,0.10000000149011616,0.1304347813129425,0.14782609045505524,0.10000000149011616,0.11304347962141036,0.1217391267418861,0.126086950302124,0.11304347962141036,0.11739130318164825,0.13913042843341827,0.16956521570682526,0.13478261232376101,0.11739130318164825,0.1304347813129425,0.156521737575531,0.0,0.0,0.0,0.0,0.0,0.0,0.0,0.0,0.0,0.0,0.0,0.0,0.0,0.0,0.0,0.0,0.0,0.0,0.0,0.0,0.0,0.0,0.0,0.0,0.0,0.0,0.0,0.0,0.0,0.0,0.0,0.0,0.0,0.0,0.0,0.0,0.0,0.0,0.0,0.0,0.0,0.0,0.0,0.0,0.0,0.0,0.0,0.0,0.0,0.0,0.0,0.0,0.0,0.0,0.0,0.0,0.0,0.0,0.0
0.8687872886657715,0.9005964398384095,0.335984081029892,0.0,0.2365805208683014,0.3518886566162109,0.3041749596595764,0.29423460364341736,0.3141153156757355,0.3061630129814148,0.3101391792297363,0.3141153156757355,0.33001989126205444,0.33797216415405273,0.3419483006000519,0.33797216415405273,0.3518886566162109,0.36182901263237,0.3558648228645325,0.3717693984508513,0.38767394423484797,0.40357851982116705,0.3996023833751679,0.40357851982116705,0.419483095407486,0.4353876709938049,0.4214711785316467,0.3996023833751679,0.4155069589614868,0.4155069589614868,0.3976143002510071,0.40556660294532776,0.3976143002510071,0.3797216713428497,0.3558648228645325,0.3658051788806915,0.3697813153266906,0.3697813153266906,0.3638170957565308,0.3598409593105316,0.3697813153266906,0.3757455348968505,0.3737574517726898,0.3677932322025299,0.3757455348968505,0.3697813153266906,0.3598409593105316,0.36182901263237,0.3558648228645325,0.3558648228645325,0.3459244668483734,0.3419483006000519,0.3479125201702118,0.34990060329437256,0.335984081029892,0.3240556716918945,0.33399602770805364,0.3439363837242126,0.33399602770805364,0.32604372501373285,0.3320079445838928,0.3399602472782135,0.3280318081378937,0.3419483006000519,0.3439363837242126,0.3677932322025299,0.3817097544670105,0.38767394423484797,0.3916501104831696,0.4075546860694885,0.4274353981018066,0.4214711785316467,0.4095427393913269,0.4015904664993287,0.3896620273590087,0.3538767397403717,0.3439363837242126,0.3280318081378937,0.3081510961055756,0.3180914521217346,0.32604372501373285,0.3200795352458953,0.3200795352458953,0.3200795352458953,0.4115308225154877,0.6003975868225098,0.8469184637069702,1.0,0.7335984110832215,0.1451292186975479,0.05367793142795562,0.2862823009490966,0.3638170957565308,0.33399602770805364,0.33399602770805364,0.33399602770805364,0.3320079445838928,0.33797216415405273,0.3439363837242126,0.3399602472782135,0.3658051788806915,0.3717693984508513,0.3658051788806915,0.3598409593105316,0.0,0.0,0.0,0.0,0.0,0.0,0.0,0.0,0.0,0.0,0.0,0.0,0.0,0.0,0.0,0.0,0.0,0.0,0.0,0.0,0.0,0.0,0.0,0.0,0.0,0.0,0.0,0.0,0.0,0.0,0.0,0.0,0.0,0.0,0.0,0.0,0.0,0.0,0.0,0.0,0.0,0.0,0.0,0.0,0.0,0.0,0.0,0.0,0.0,0.0,0.0,0.0,0.0,0.0,0.0,0.0,0.0,0.0,0.0,0.0,0.0,0.0,0.0,0.0,0.0,0.0,0.0,0.0,0.0,0.0,0.0,0.0,0.0,0.0,0.0,0.0,0.0,0.0,0.0,0.0,0.0,0.0,0.0,0.0
1.0,0.9074074029922484,0.15509259700775144,0.0,0.10879629850387572,0.1296296268701553,0.13657407462596893,0.12268518656492232,0.12268518656492232,0.11342592537403105,0.1157407388091087,0.11111111193895344,0.1180555522441864,0.11111111193895344,0.1157407388091087,0.11111111193895344,0.1180555522441864,0.12037037312984465,0.12731482088565824,0.1296296268701553,0.14583332836627966,0.15046297013759613,0.1712962985038757,0.17592592537403107,0.2013888955116272,0.22453702986240384,0.24768517911434176,0.2708333432674408,0.2939814925193786,0.3101851940155029,0.3310185074806213,0.3449074029922485,0.34953704476356506,0.3402777910232544,0.33333334326744074,0.30555555224418635,0.27777779102325445,0.2430555522441865,0.22453702986240384,0.1944444477558136,0.1875,0.17592592537403107,0.1736111044883728,0.1643518507480621,0.1736111044883728,0.16666667163372034,0.1736111044883728,0.16898147761821747,0.1736111044883728,0.1736111044883728,0.18287037312984464,0.1805555522441864,0.18981482088565824,0.1782407462596893,0.18981482088565824,0.1875,0.18981482088565824,0.1875,0.19212962687015533,0.18287037312984464,0.18287037312984464,0.1782407462596893,0.1782407462596893,0.1643518507480621,0.16898147761821747,0.1574074029922485,0.15972222387790685,0.15509259700775144,0.1574074029922485,0.15277777612209315,0.14583332836627966,0.13657407462596893,0.14583332836627966,0.14120370149612424,0.14583332836627966,0.13888889551162725,0.14120370149612424,0.1319444477558136,0.15046297013759613,0.15972222387790685,0.17592592537403107,0.16898147761821747,0.18981482088565824,0.18287037312984464,0.1875,0.16666667163372034,0.15972222387790685,0.1643518507480621,0.16898147761821747,0.13657407462596893,0.1319444477558136,0.12268518656492232,0.12268518656492232,0.11342592537403105,0.1157407388091087,0.11342592537403105,0.1180555522441864,0.1157407388091087,0.12268518656492232,0.09490741044282912,0.07638888806104659,0.1574074029922485,0.5115740895271301,0.8912037014961242,0.9467592835426328,0.34953704476356506,0.013888888992369177,0.04398148134350777,0.13657407462596893,0.1180555522441864,0.12731482088565824,0.1157407388091087,0.11111111193895344,0.09953703731298444,0.10648148506879808,0.1041666641831398,0.10879629850387572,0.09953703731298444,0.10879629850387572,0.10648148506879808,0.11111111193895344,0.11342592537403105,0.12037037312984465,0.12037037312984465,0.13425925374031064,0.13888889551162725,0.0,0.0,0.0,0.0,0.0,0.0,0.0,0.0,0.0,0.0,0.0,0.0,0.0,0.0,0.0,0.0,0.0,0.0,0.0,0.0,0.0,0.0,0.0,0.0,0.0,0.0,0.0,0.0,0.0,0.0,0.0,0.0,0.0,0.0,0.0,0.0,0.0,0.0,0.0,0.0,0.0,0.0,0.0,0.0,0.0,0.0,0.0,0.0,0.0,0.0,0.0,0.0,0.0,0.0,0.0,0.0,0.0,0.0,0.0,0.0,0.0,0.0
1.0,0.9013282656669616,0.5578747391700745,0.43074002861976624,0.41555976867675776,0.38330170512199396,0.34535104036331177,0.28273245692253113,0.2466793209314346,0.18975332379341125,0.17267552018165588,0.14041745662689206,0.13282732665538788,0.12523719668388367,0.11764705926179887,0.10246679186820984,0.10626185685396193,0.09108159691095352,0.10056926310062407,0.08538899570703505,0.08349145948886871,0.07020872831344603,0.06641366332769394,0.060721062123775475,0.05882352963089942,0.0398481972515583,0.04554079845547676,0.017077798023819923,0.026565464213490486,0.0,0.007590132765471934,0.007590132765471934,0.017077798023819923,0.020872864872217182,0.04933586344122887,0.07020872831344603,0.11385199427604675,0.11005692929029463,0.14611005783081052,0.16129031777381894,0.18216319382190704,0.18026565015316007,0.1935483813285828,0.18595825135707847,0.19165085256099698,0.17457304894924164,0.18595825135707847,0.18216319382190704,0.18595825135707847,0.17267552018165588,0.1764705926179886,0.17267552018165588,0.1840607225894928,0.17267552018165588,0.17457304894924164,0.16129031777381894,0.1764705926179886,0.17457304894924164,0.1707779914140701,0.17457304894924164,0.17457304894924164,0.17267552018165588,0.1764705926179886,0.16508539021015167,0.18026565015316007,0.16318786144256592,0.18026565015316007,0.16888046264648435,0.1783681213855743,0.17457304894924164,0.1840607225894928,0.1783681213855743,0.18785578012466436,0.18595825135707847,0.2011385262012481,0.19734345376491544,0.2106261849403381,0.2011385262012481,0.20683111250400546,0.18975332379341125,0.18785578012466436,0.1764705926179886,0.1764705926179886,0.1707779914140701,0.16888046264648435,0.16508539021015167,0.17267552018165588,0.17267552018165588,0.19544592499732968,0.1783681213855743,0.19544592499732968,0.18026565015316007,0.2485768496990204,0.3624288439750672,0.4800758957862854,0.6110056638717651,0.8614800572395325,0.992409884929657,0.8728652596473692,0.5142315030097963,0.3946869075298309,0.3700189888477325,0.3605313003063201,0.29222011566162104,0.2713472545146942,0.20303605496883392,0.1764705926179886,0.1442125290632248,0.1309297978878021,0.11005692929029463,0.1119544580578804,0.10246679186820984,0.1043643280863762,0.09297912567853928,0.11005692929029463,0.08538899570703505,0.0,0.0,0.0,0.0,0.0,0.0,0.0,0.0,0.0,0.0,0.0,0.0,0.0,0.0,0.0,0.0,0.0,0.0,0.0,0.0,0.0,0.0,0.0,0.0,0.0,0.0,0.0,0.0,0.0,0.0,0.0,0.0,0.0,0.0,0.0,0.0,0.0,0.0,0.0,0.0,0.0,0.0,0.0,0.0,0.0,0.0,0.0,0.0,0.0,0.0,0.0,0.0,0.0,0.0,0.0,0.0,0.0,0.0,0.0,0.0,0.0,0.0,0.0,0.0,0.0,0.0,0.0,0.0,0.0,0.0,0.0,0.0
